Time(s),Filtered_ECG(mV),R_Peak
-20.0239,-8.851167,0
-20.0129,-4.500608,0
-20.0129,6.315715,0
-20.0119,8.433570,0
-20.0080,-0.802662,0
-20.0041,-8.145932,0
-20.0009,-3.575382,0
-19.9969,7.144149,0
-19.9929,8.765940,0
-19.9879,-0.530675,0
-19.9849,-8.029758,0
-19.9799,-3.660924,0
-19.9769,6.974546,0
-19.9719,8.577789,0
-19.9689,-0.991262,0
-19.9639,-8.305101,0
-19.9609,-3.859322,0
-19.9559,6.707173,0
-19.9529,8.126263,0
-19.9479,-1.660617,0
-19.9439,-9.274054,0
-19.9399,-4.740225,0
-19.9299,5.995523,0
-19.9279,7.443458,0
-19.9269,-2.288574,0
-19.9239,-9.660646,0
-19.9199,-5.065344,0
-19.9159,5.756567,0
-19.9119,7.309489,0
-19.9083,-2.187474,0
-19.9039,-9.446397,0
-19.9006,-4.971541,0
-19.8962,5.679180,0
-19.8922,7.032841,0
-19.8882,-2.512524,0
-19.8842,-9.470672,0
-19.8802,-4.525507,0
-19.8762,6.105358,0
-19.8722,7.192314,0
-19.8678,-2.630414,0
-19.8638,-9.867659,0
-19.8543,-4.896050,0
-19.8533,5.690040,0
-19.8523,6.928260,0
-19.8481,-2.629080,0
-19.8441,-9.869695,0
-19.8401,-4.962683,0
-19.8361,5.883305,0
-19.8321,7.177920,0
-19.8281,-2.375804,0
-19.8241,-9.285307,0
-19.8201,-4.474821,0
-19.8161,5.869635,0
-19.8121,6.812735,0
-19.8086,-2.843677,0
-19.8046,-9.819311,0
-19.7996,-4.617022,0
-19.7966,6.059994,0
-19.7926,6.922434,0
-19.7886,-2.619475,0
-19.7769,-9.376228,0
-19.7759,-4.095021,0
-19.7759,6.343996,0
-19.7719,7.035875,0
-19.7684,-2.686142,0
-19.7644,-9.371499,0
-19.7596,-4.212774,0
-19.7556,6.422683,0
-19.7516,7.089523,0
-19.7476,-2.719900,0
-19.7436,-9.669022,0
-19.7396,-4.602956,0
-19.7356,6.240114,0
-19.7322,7.142352,0
-19.7282,-2.784292,0
-19.7242,-9.918559,0
-19.7202,-4.742928,0
-19.7162,6.068268,0
-19.7122,6.911891,0
-19.7075,-2.782694,0
-19.6961,-9.434932,0
-19.6951,-4.164180,0
-19.6941,6.525606,0
-19.6921,7.126515,0
-19.6881,-2.698698,0
-19.6841,-9.325708,0
-19.6801,-4.074576,0
-19.6759,6.392879,0
-19.6719,6.789811,0
-19.6679,-2.900378,0
-19.6636,-9.437715,0
-19.6595,-4.094477,0
-19.6563,6.413126,0
-19.6520,6.924159,0
-19.6479,-2.698111,0
-19.6435,-8.959952,0
-19.6395,-3.464400,0
-19.6355,6.755343,0
-19.6315,6.986353,0
-19.6275,-3.053697,0
-19.6235,-9.371826,0
-19.6195,-3.508333,0
-19.6154,7.214267,0
-19.6123,7.669759,0
-19.6023,-2.151426,0
-19.6023,-8.883989,0
-19.6003,-3.629309,0
-19.5953,6.843116,0
-19.5923,7.324084,0
-19.5883,-2.298535,0
-19.5843,-8.546184,0
-19.5793,-3.162219,0
-19.5753,6.802083,0
-19.5713,6.332547,0
-19.5673,-3.955203,0
-19.5633,-10.379570,0
-19.5603,-4.371433,0
-19.5553,6.753498,0
-19.5513,7.285903,0
-19.5473,-2.390914,0
-19.5433,-8.483358,0
-19.5393,-3.013066,0
-19.5353,7.284565,0
-19.5250,7.221368,0
-19.5250,-2.746565,0
-19.5240,-8.887814,0
-19.5200,-2.982886,0
-19.5160,7.421480,0
-19.5116,7.376170,0
-19.5081,-2.610970,0
-19.5041,-9.007218,0
-19.5001,-3.272395,0
-19.4961,6.863602,0
-19.4921,6.455412,0
-19.4881,-3.552439,0
-19.4841,-9.091061,0
-19.4801,-2.123590,0
-19.4760,9.763768,0
-19.4720,10.945268,0
-19.4680,1.225428,0
-19.4640,-5.572750,0
-19.4590,-0.847637,0
-19.4490,8.199469,0
-19.4480,7.067427,0
-19.4480,-3.366041,0
-19.4440,-9.317346,0
-19.4400,-3.441246,0
-19.4360,6.781765,0
-19.4316,6.523170,0
-19.4276,-3.433167,0
-19.4236,-9.514248,0
-19.4196,-3.637462,0
-19.4156,6.682066,0
-19.4116,6.404885,0
-19.4081,-3.524853,0
-19.4031,-9.358627,0
-19.4000,-3.078520,0
-19.3950,7.102850,0
-19.3920,6.540952,0
-19.3880,-3.468449,0
-19.3840,-9.054013,0
-19.3796,-2.773010,0
-19.3696,7.770697,0
-19.3696,7.343807,0
-19.3676,-2.919327,0
-19.3636,-9.083969,0
-19.3596,-3.199468,0
-19.3556,6.806527,0
-19.3516,6.088604,0
-19.3476,-3.974802,0
-19.3436,-9.576230,0
-19.3396,-3.176641,0
-19.3351,6.907194,0
-19.3311,6.169023,0
-19.3271,-3.952087,0
-19.3231,-9.492329,0
-19.3199,-3.376122,0
-19.3154,6.610769,0
-19.3114,5.820833,0
-19.3069,-4.262746,0
-19.3029,-9.639545,0
-19.2927,-3.012876,0
-19.2916,7.048322,0
-19.2916,5.966349,0
-19.2876,-4.262954,0
-19.2836,-9.741366,0
-19.2794,-3.209192,0
-19.2754,7.293924,0
-19.2718,6.567782,0
-19.2675,-3.629918,0
-19.2635,-9.283140,0
-19.2595,-2.843173,0
-19.2550,7.588357,0
-19.2515,6.926063,0
-19.2478,-3.060607,0
-19.2438,-8.127807,0
-19.2394,-1.430025,0
-19.2360,8.544337,0
-19.2316,7.528881,0
-19.2246,-2.434455,0
-19.2141,-7.409619,0
-19.2141,-0.609652,0
-19.2131,9.356142,0
-19.2115,8.271546,0
-19.2072,-1.743976,0
-19.2032,-6.963847,0
-19.1992,-0.361838,0
-19.1952,9.885195,0
-19.1912,8.674341,0
-19.1872,-1.714067,0
-19.1832,-6.826416,0
-19.1792,-0.338547,0
-19.1752,9.720208,0
-19.1712,8.597011,0
-19.1672,-1.925895,0
-19.1632,-7.323979,0
-19.1592,-0.899658,0
-19.1552,8.986625,0
-19.1512,7.440529,0
-19.1472,-3.006077,0
-19.1382,-8.365019,0
-19.1371,-1.552529,0
-19.1351,8.439934,0
-19.1311,6.936381,0
-19.1267,-3.621757,0
-19.1227,-8.608916,0
-19.1197,-1.776231,0
-19.1157,8.004501,0
-19.1112,6.456287,0
-19.1077,-3.743669,0
-19.1027,-8.595844,0
-19.0987,-1.681956,0
-19.0947,8.295624,0
-19.0917,6.688936,0
-19.0869,-3.712019,0
-19.0829,-8.799128,0
-19.0789,-1.999608,0
-19.0749,8.204684,0
-19.0709,6.644010,0
-19.0669,-3.660567,0
-19.0575,-8.517721,0
-19.0565,-1.511444,0
-19.0545,8.104399,0
-19.0515,6.030952,0
-19.0465,-4.568633,0
-19.0431,-9.459557,0
-19.0391,-2.301278,0
-19.0347,7.792314,0
-19.0307,6.177028,0
-19.0267,-4.268173,0
-19.0227,-9.265725,0
-19.0187,-2.271866,0
-19.0147,7.727692,0
-19.0107,6.091730,0
-19.0072,-4.161253,0
-19.0032,-8.889300,0
-18.9996,-1.721569,0
-18.9953,7.976767,0
-18.9903,5.940809,0
-18.9803,-4.402577,0
-18.9793,-9.276571,0
-18.9793,-2.129284,0
-18.9750,7.588788,0
-18.9710,5.530791,0
-18.9670,-4.951783,0
-18.9627,-9.454732,0
-18.9587,-2.051056,0
-18.9547,7.799985,0
-18.9507,5.931011,0
-18.9465,-4.563038,0
-18.9432,-9.364692,0
-18.9392,-2.142812,0
-18.9352,7.661193,0
-18.9312,5.637035,0
-18.9272,-4.628257,0
-18.9232,-8.932063,0
-18.9171,-1.567183,0
-18.9071,8.105141,0
-18.9071,6.114869,0
-18.9061,-4.468044,0
-18.9031,-9.032661,0
-18.8985,-1.532446,0
-18.8951,8.217180,0
-18.8908,6.097637,0
-18.8866,-4.425003,0
-18.8826,-8.781559,0
-18.8786,-1.309756,0
-18.8746,8.324955,0
-18.8706,5.775692,0
-18.8666,-5.025617,0
-18.8626,-9.320197,0
-18.8586,-1.479476,0
-18.8546,8.243423,0
-18.8506,5.891024,0
-18.8466,-4.684605,0
-18.8426,-8.880426,0
-18.8366,-1.091729,0
-18.8266,8.543508,0
-18.8266,5.949468,0
-18.8254,-5.094380,0
-18.8224,-9.737256,0
-18.8184,-1.908732,0
-18.8144,7.983603,0
-18.8106,5.753944,0
-18.8069,-4.677194,0
-18.8029,-9.152611,0
-18.7989,-1.616271,0
-18.7949,7.924946,0
-18.7902,5.372153,0
-18.7862,-5.145566,0
-18.7822,-9.209730,0
-18.7782,-1.262076,0
-18.7742,8.177047,0
-18.7702,5.610037,0
-18.7669,-5.011526,0
-18.7609,-9.063510,0
-18.7495,-1.384033,0
-18.7495,8.012998,0
-18.7481,5.141266,0
-18.7461,-5.813951,0
-18.7421,-10.065333,0
-18.7381,-2.485102,0
-18.7341,6.902758,0
-18.7307,4.321282,0
-18.7267,-5.871032,0
-18.7222,-9.353260,0
-18.7182,-1.010629,0
-18.7145,8.609909,0
-18.7105,5.873479,0
-18.7070,-4.979313,0
-18.7030,-9.180729,0
-18.6990,-1.461269,0
-18.6946,7.914787,0
-18.6906,5.231068,0
-18.6865,-5.262219,0
-18.6825,-8.963608,0
-18.6735,-1.037655,0
-18.6735,8.079930,0
-18.6703,4.908329,0
-18.6668,-5.704736,0
-18.6626,-9.385657,0
-18.6588,-1.289888,0
-18.6545,8.418367,0
-18.6505,6.472223,0
-18.6465,-3.044037,0
-18.6425,-5.668207,0
-18.6385,3.065701,0
-18.6345,12.169720,0
-18.6305,8.116746,0
-18.6265,-4.051145,0
-18.6225,-8.980229,0
-18.6185,-1.450137,0
-18.6145,7.659875,0
-18.6099,4.424878,0
-18.6044,-6.107478,0
-18.5944,-9.679698,0
-18.5944,-1.449090,0
-18.5944,7.965620,0
-18.5904,4.721307,0
-18.5859,-5.952170,0
-18.5819,-9.444283,0
-18.5779,-0.989321,0
-18.5739,8.645964,0
-18.5699,5.606757,0
-18.5659,-4.963310,0
-18.5619,-8.658774,0
-18.5586,-1.013357,0
-18.5541,7.742245,0
-18.5501,4.304363,0
-18.5466,-6.237792,0
-18.5426,-9.497275,0
-18.5386,-1.222174,0
-18.5346,7.859299,0
-18.5296,4.374658,0
-18.5186,-6.241809,0
-18.5175,-9.468698,0
-18.5175,-0.995685,0
-18.5144,8.133073,0
-18.5104,4.653672,0
-18.5059,-6.286743,0
-18.5019,-9.647418,0
-18.4978,-1.110052,0
-18.4938,7.820400,0
-18.4905,4.220597,0
-18.4865,-6.671072,0
-18.4825,-9.992036,0
-18.4785,-1.761444,0
-18.4745,7.008377,0
-18.4705,3.479658,0
-18.4665,-6.970319,0
-18.4625,-10.075461,0
-18.4585,-1.484272,0
-18.4541,7.501226,0
-18.4500,3.788661,0
-18.4412,-6.849438,0
-18.4412,-9.932274,0
-18.4378,-1.144804,0
-18.4342,8.088865,0
-18.4302,4.289188,0
-18.4262,-6.115769,0
-18.4222,-8.941215,0
-18.4182,-0.103675,0
-18.4142,9.078994,0
-18.4102,5.353574,0
-18.4057,-5.380441,0
-18.4027,-8.314044,0
-18.3977,0.712425,0
-18.3937,10.199584,0
-18.3896,6.605902,0
-18.3866,-4.131075,0
-18.3816,-7.090478,0
-18.3786,1.697517,0
-18.3736,10.539739,0
-18.3696,6.605025,0
-18.3591,-4.108174,0
-18.3571,-7.032172,0
-18.3571,1.815896,0
-18.3541,10.893759,0
-18.3497,7.208560,0
-18.3457,-3.441136,0
-18.3423,-6.474160,0
-18.3379,2.190335,0
-18.3339,10.712645,0
-18.3299,6.473722,0
-18.3259,-4.405817,0
-18.3217,-7.309424,0
-18.3187,1.175848,0
-18.3143,9.867311,0
-18.3103,5.914496,0
-18.3058,-4.754742,0
-18.3018,-7.523630,0
-18.2968,1.297879,0
-18.2854,10.017538,0
-18.2854,5.585160,0
-18.2844,-5.438254,0
-18.2824,-8.367005,0
-18.2777,0.699159,0
-18.2736,9.547505,0
-18.2700,5.328218,0
-18.2660,-5.549421,0
-18.2620,-8.540592,0
-18.2582,0.067879,0
-18.2542,8.832093,0
-18.2502,4.737895,0
-18.2462,-5.811220,0
-18.2422,-8.272859,0
-18.2382,0.733569,0
-18.2342,9.309633,0
-18.2302,4.938705,0
-18.2262,-5.830036,0
-18.2216,-8.405196,0
-18.2176,0.576586,0
-18.2077,9.021935,0
-18.2072,4.286627,0
-18.2042,-6.470669,0
-18.2017,-8.499730,0
-18.1977,0.538667,0
-18.1937,9.195549,0
-18.1897,4.795221,0
-18.1857,-6.206791,0
-18.1817,-8.717659,0
-18.1777,0.549235,0
-18.1737,9.232511,0
-18.1697,4.862830,0
-18.1657,-5.712046,0
-18.1617,-8.077828,0
-18.1580,0.833583,0
-18.1533,9.147389,0
-18.1493,4.303328,0
-18.1440,-6.587922,0
-18.1390,-8.773128,0
-18.1380,0.508940,0
-18.1341,9.075744,0
-18.1301,4.517099,0
-18.1261,-6.325655,0
-18.1221,-8.533099,0
-18.1181,0.805938,0
-18.1138,9.236349,0
-18.1098,4.412395,0
-18.1061,-6.528845,0
-18.1021,-8.866913,0
-18.0981,0.375974,0
-18.0938,8.848485,0
-18.0895,4.484648,0
-18.0855,-5.950313,0
-18.0815,-7.954503,0
-18.0775,0.982087,0
-18.0735,8.939208,0
-18.0635,4.127294,0
-18.0635,-6.677768,0
-18.0615,-8.799110,0
-18.0575,0.428518,0
-18.0535,8.699574,0
-18.0493,4.012196,0
-18.0453,-6.469696,0
-18.0413,-8.266001,0
-18.0373,0.947538,0
-18.0343,8.935642,0
-18.0300,3.872727,0
-18.0260,-6.606291,0
-18.0220,-8.177079,0
-18.0177,1.267508,0
-18.0137,9.251607,0
-18.0097,4.019243,0
-18.0052,-6.987591,0
-18.0012,-8.918392,0
-17.9912,0.498232,0
-17.9912,8.697921,0
-17.9892,3.735448,0
-17.9862,-6.832524,0
-17.9819,-8.522987,0
-17.9779,0.948494,0
-17.9739,9.037419,0
-17.9700,4.036336,0
-17.9658,-6.586217,0
-17.9617,-8.181831,0
-17.9577,1.432979,0
-17.9537,9.426130,0
-17.9497,4.231641,0
-17.9457,-6.395278,0
-17.9417,-8.045978,0
-17.9377,1.547440,0
-17.9337,9.639352,0
-17.9287,4.182088,0
-17.9192,-6.810165,0
-17.9182,-8.746872,0
-17.9172,0.545152,0
-17.9132,8.183706,0
-17.9092,2.766477,0
-17.9057,-7.642487,0
-17.9017,-8.979438,0
-17.8977,0.902079,0
-17.8937,9.175302,0
-17.8897,4.119598,0
-17.8857,-6.380109,0
-17.8817,-7.822080,0
-17.8774,1.528932,0
-17.8734,9.150752,0
-17.8694,3.836393,0
-17.8654,-6.973408,0
-17.8604,-8.607835,0
-17.8486,1.109495,0
-17.8481,8.851249,0
-17.8481,3.465169,0
-17.8451,-7.172834,0
-17.8412,-8.644409,0
-17.8373,0.871444,0
-17.8329,8.353872,0
-17.8292,3.038823,0
-17.8249,-6.649518,0
-17.8209,-6.764672,0
-17.8169,4.406878,0
-17.8129,13.049474,0
-17.8094,7.525688,0
-17.8052,-3.972255,0
-17.8008,-6.567945,0
-17.7968,1.861301,0
-17.7938,8.520095,0
-17.7898,2.569705,0
-17.7848,-8.058640,0
-17.7748,-9.194519,0
-17.7748,0.723306,0
-17.7738,8.342447,0
-17.7688,2.749812,0
-17.7648,-7.888659,0
-17.7608,-8.996588,0
-17.7578,0.801994,0
-17.7528,8.266642,0
-17.7488,2.729550,0
-17.7448,-7.525499,0
-17.7408,-8.294566,0
-17.7368,1.770600,0
-17.7328,9.285330,0
-17.7288,3.195104,0
-17.7248,-7.842245,0
-17.7208,-9.264058,0
-17.7178,0.562458,0
-17.7131,8.262694,0
-17.7097,2.806393,0
-17.7052,-7.667407,0
-17.7012,-8.737119,0
-17.6972,1.142179,0
-17.6932,8.365993,0
-17.6892,2.456660,0
-17.6852,-8.138261,0
-17.6812,-9.050051,0
-17.6772,0.950279,0
-17.6732,8.275152,0
-17.6632,2.444855,0
-17.6632,-8.032259,0
-17.6612,-9.065262,0
-17.6572,0.510987,0
-17.6539,7.410856,0
-17.6486,1.404491,0
-17.6456,-9.000855,0
-17.6416,-9.545763,0
-17.6369,0.572495,0
-17.6329,7.738902,0
-17.6289,1.813513,0
-17.6247,-8.508018,0
-17.6207,-9.193224,0
-17.6165,0.789612,0
-17.6135,8.019729,0
-17.6085,2.045441,0
-17.6050,-8.324483,0
-17.6010,-8.897134,0
-17.5970,1.248825,0
-17.5870,8.684891,0
-17.5870,2.936313,0
-17.5850,-7.312087,0
-17.5810,-7.852815,0
-17.5770,2.009748,0
-17.5730,9.087213,0
-17.5686,3.077625,0
-17.5648,-6.959536,0
-17.5614,-6.806051,0
-17.5574,3.733021,0
-17.5533,10.809101,0
-17.5489,4.696140,0
-17.5449,-5.691201,0
-17.5409,-6.246313,0
-17.5367,4.124936,0
-17.5326,11.189928,0
-17.5287,4.834557,0
-17.5247,-5.744974,0
-17.5206,-6.054346,0
-17.5166,4.180401,0
-17.5074,10.942921,0
-17.5074,4.455005,0
-17.5049,-6.211057,0
-17.5009,-7.128489,0
-17.4965,3.052757,0
-17.4925,9.975351,0
-17.4892,3.629853,0
-17.4849,-6.772402,0
-17.4809,-7.058055,0
-17.4768,3.055480,0
-17.4728,9.514912,0
-17.4687,2.757529,0
-17.4652,-7.692315,0
-17.4612,-7.846561,0
-17.4572,2.587679,0
-17.4530,9.424685,0
-17.4486,2.791423,0
-17.4436,-7.575366,0
-17.4316,-7.549786,0
-17.4306,2.797069,0
-17.4306,9.574799,0
-17.4286,2.994748,0
-17.4246,-7.410080,0
-17.4206,-7.782093,0
-17.4166,2.282000,0
-17.4126,8.997306,0
-17.4086,2.600446,0
-17.4051,-7.665216,0
-17.4011,-7.579725,0
-17.3971,2.694833,0
-17.3931,9.259399,0
-17.3891,2.487986,0
-17.3851,-7.835195,0
-17.3811,-7.804801,0
-17.3771,2.826392,0
-17.3731,9.620167,0
-17.3691,3.031821,0
-17.3641,-7.306297,0
-17.3536,-7.396653,0
-17.3536,3.019589,0
-17.3526,9.540645,0
-17.3486,2.737733,0
-17.3446,-7.455412,0
-17.3406,-7.056800,0
-17.3366,3.750066,0
-17.3326,10.229399,0
-17.3281,3.079121,0
-17.3248,-7.413815,0
-17.3208,-7.375271,0
-17.3168,2.994018,0
-17.3128,9.414307,0
-17.3088,2.523972,0
-17.3051,-7.502800,0
-17.3007,-7.258794,0
-17.2967,3.124756,0
-17.2927,9.444700,0
-17.2882,2.735622,0
-17.2761,-7.392590,0
-17.2761,-7.264672,0
-17.2750,3.161127,0
-17.2730,9.397590,0
-17.2690,2.453102,0
-17.2650,-7.718758,0
-17.2610,-7.369676,0
-17.2570,3.168073,0
-17.2530,9.536432,0
-17.2490,2.469417,0
-17.2447,-7.937131,0
-17.2407,-7.688432,0
-17.2367,2.814067,0
-17.2327,9.243722,0
-17.2287,2.363258,0
-17.2241,-7.765052,0
-17.2206,-7.222830,0
-17.2166,3.332188,0
-17.2128,9.718103,0
-17.2078,2.609706,0
-17.1959,-7.686240,0
-17.1945,-7.193799,0
-17.1945,3.486182,0
-17.1925,9.892364,0
-17.1887,2.853901,0
-17.1844,-7.707676,0
-17.1804,-7.836959,0
-17.1764,2.322664,0
-17.1724,8.332681,0
-17.1684,1.391503,0
-17.1644,-8.264033,0
-17.1604,-7.263655,0
-17.1564,3.360344,0
-17.1524,9.336698,0
-17.1484,2.116623,0
-17.1441,-7.912399,0
-17.1407,-7.152799,0
-17.1367,3.373187,0
-17.1323,9.337144,0
-17.1213,2.316914,0
-17.1213,-7.680343,0
-17.1203,-7.001976,0
-17.1163,3.614557,0
-17.1123,9.358035,0
-17.1083,1.808325,0
-17.1048,-8.412810,0
-17.1008,-7.646913,0
-17.0968,3.124262,0
-17.0925,9.454444,0
-17.0884,3.135707,0
-17.0842,-5.744301,0
-17.0802,-3.954235,0
-17.0762,6.846253,0
-17.0722,11.882456,0
-17.0682,3.317263,0
-17.0642,-7.749036,0
-17.0602,-7.302188,0
-17.0562,3.375582,0
-17.0447,9.098855,0
-17.0437,1.572357,0
-17.0437,-8.508252,0
-17.0402,-7.378202,0
-17.0358,3.497546,0
-17.0318,9.049467,0
-17.0278,1.333633,0
-17.0243,-8.465486,0
-17.0198,-7.026699,0
-17.0158,3.926951,0
-17.0125,9.530159,0
-17.0081,2.044421,0
-17.0043,-7.957249,0
-16.9998,-7.047058,0
-16.9958,3.621860,0
-16.9918,9.105163,0
-16.9878,1.509995,0
-16.9844,-8.323083,0
-16.9783,-7.045518,0
-16.9673,3.984135,0
-16.9673,9.383933,0
-16.9663,1.689082,0
-16.9643,-8.353938,0
-16.9603,-7.204165,0
-16.9563,3.681179,0
-16.9523,9.095362,0
-16.9483,1.279582,0
-16.9443,-8.506731,0
-16.9403,-7.226095,0
-16.9363,3.809690,0
-16.9323,9.309748,0
-16.9283,1.346454,0
-16.9243,-8.842229,0
-16.9203,-7.540386,0
-16.9163,3.514529,0
-16.9123,9.066447,0
-16.9083,1.565996,0
-16.9038,-7.980142,0
-16.8988,-6.513336,0
-16.8888,4.149709,0
-16.8873,9.020347,0
-16.8873,0.672503,0
-16.8843,-9.171346,0
-16.8803,-7.478412,0
-16.8763,3.703123,0
-16.8723,9.051587,0
-16.8679,1.179087,0
-16.8639,-8.244266,0
-16.8599,-6.403322,0
-16.8559,4.768957,0
-16.8519,9.956907,0
-16.8479,2.008688,0
-16.8439,-7.661839,0
-16.8399,-5.817389,0
-16.8359,5.472094,0
-16.8329,10.673117,0
-16.8274,2.863647,0
-16.8224,-6.545147,0
-16.8124,-4.583209,0
-16.8114,6.721855,0
-16.8114,11.794334,0
-16.8084,3.697535,0
-16.8039,-6.011535,0
-16.8005,-4.273814,0
-16.7961,6.733205,0
-16.7921,11.445692,0
-16.7876,3.095785,0
-16.7838,-6.584694,0
-16.7803,-4.738144,0
-16.7758,6.268326,0
-16.7718,10.897236,0
-16.7678,2.453858,0
-16.7638,-7.371369,0
-16.7598,-5.687835,0
-16.7558,5.249300,0
-16.7518,9.964947,0
-16.7478,1.621589,0
-16.7428,-7.989179,0
-16.7318,-5.943018,0
-16.7318,5.055170,0
-16.7318,9.525661,0
-16.7278,1.210101,0
-16.7238,-8.537544,0
-16.7198,-6.599815,0
-16.7158,4.426699,0
-16.7122,8.842713,0
-16.7082,0.552028,0
-16.7037,-8.857523,0
-16.6997,-6.598861,0
-16.6957,4.620372,0
-16.6917,9.279734,0
-16.6877,0.804206,0
-16.6835,-8.951764,0
-16.6795,-6.841222,0
-16.6754,4.302835,0
-16.6714,8.982344,0
-16.6674,0.880477,0
-16.6631,-8.338174,0
-16.6535,-5.954124,0
-16.6535,5.083679,0
-16.6515,9.446768,0
-16.6473,0.997343,0
-16.6435,-8.281042,0
-16.6396,-5.810066,0
-16.6353,5.362619,0
-16.6317,9.649645,0
-16.6274,0.928361,0
-16.6234,-8.430946,0
-16.6194,-6.009899,0
-16.6154,5.205892,0
-16.6111,9.286821,0
-16.6081,0.442326,0
-16.6036,-9.006804,0
-16.5994,-6.509758,0
-16.5952,4.841649,0
-16.5918,9.123013,0
-16.5868,0.592026,0
-16.5759,-8.689231,0
-16.5749,-6.178872,0
-16.5749,5.123496,0
-16.5719,9.025137,0
-16.5679,0.215861,0
-16.5639,-9.227680,0
-16.5599,-6.701673,0
-16.5559,4.504452,0
-16.5519,8.482695,0
-16.5479,-0.304180,0
-16.5439,-9.532945,0
-16.5399,-6.704449,0
-16.5359,4.640704,0
-16.5319,8.826319,0
-16.5279,0.160346,0
-16.5234,-9.155524,0
-16.5198,-6.544401,0
-16.5151,5.019000,0
-16.5066,9.176786,0
-16.5014,0.473491,0
-16.4993,-8.688995,0
-16.4981,-6.143513,0
-16.4951,5.089219,0
-16.4918,9.158546,0
-16.4878,0.427093,0
-16.4838,-8.648428,0
-16.4798,-5.939023,0
-16.4758,5.116217,0
-16.4718,8.880156,0
-16.4678,0.070634,0
-16.4638,-9.115952,0
-16.4598,-6.329706,0
-16.4558,4.743463,0
-16.4514,8.410342,0
-16.4471,-0.417917,0
-16.4436,-9.120812,0
-16.4396,-5.520856,0
-16.4326,6.174561,0
-16.4212,10.009447,0
-16.4192,0.910840,0
-16.4182,-8.385417,0
-16.4182,-5.642504,0
-16.4152,5.235988,0
-16.4112,8.749644,0
-16.4082,-0.014191,0
-16.4037,-8.745138,0
-16.3992,-5.404355,0
-16.3958,5.902944,0
-16.3909,9.278015,0
-16.3869,0.064100,0
-16.3829,-8.962448,0
-16.3790,-5.976027,0
-16.3748,5.270718,0
-16.3718,9.333529,0
-16.3673,1.428546,0
-16.3629,-5.975055,0
-16.3589,-1.686318,0
-16.3525,9.908028,0
-16.3474,12.506670,0
-16.3464,1.955519,0
-16.3430,-8.328667,0
-16.3390,-5.966518,0
-16.3350,5.044367,0
-16.3310,8.312201,0
-16.3270,-0.936285,0
-16.3230,-9.464434,0
-16.3190,-5.948251,0
-16.3150,5.559131,0
-16.3110,8.918542,0
-16.3080,-0.449821,0
-16.3035,-9.367492,0
-16.2995,-6.174453,0
-16.2955,5.058921,0
-16.2915,8.086007,0
-16.2875,-0.993770,0
-16.2835,-9.400161,0
-16.2795,-5.881920,0
-16.2745,5.337118,0
-16.2631,8.411132,0
-16.2621,-0.628900,0
-16.2621,-9.143136,0
-16.2597,-5.661112,0
-16.2547,5.509353,0
-16.2517,8.408843,0
-16.2474,-0.913382,0
-16.2436,-9.340787,0
-16.2392,-5.440417,0
-16.2348,5.783974,0
-16.2308,8.616332,0
-16.2273,-0.888868,0
-16.2233,-9.731731,0
-16.2199,-6.026447,0
-16.2149,5.260966,0
-16.2108,8.082271,0
-16.2078,-1.292612,0
-16.2035,-9.662986,0
-16.1986,-5.732526,0
-16.1951,5.507690,0
-16.1889,8.275343,0
-16.1769,-1.089005,0
-16.1759,-9.374775,0
-16.1759,-5.314065,0
-16.1749,6.106043,0
-16.1709,8.540512,0
-16.1667,-1.170851,0
-16.1627,-9.849930,0
-16.1587,-5.668767,0
-16.1547,5.917210,0
-16.1507,8.555241,0
-16.1467,-0.948361,0
-16.1427,-9.422683,0
-16.1387,-5.486297,0
-16.1347,6.086651,0
-16.1307,9.160281,0
-16.1267,0.103911,0
-16.1227,-8.059065,0
-16.1187,-4.017699,0
-16.1145,7.325648,0
-16.1095,9.780149,0
-16.0982,0.286453,0
-16.0969,-7.687681,0
-16.0969,-3.281908,0
-16.0945,8.310972,0
-16.0914,10.935114,0
-16.0864,1.260786,0
-16.0834,-7.389526,0
-16.0784,-3.424903,0
-16.0754,8.040236,0
-16.0704,10.485145,0
-16.0664,0.838463,0
-16.0624,-7.318380,0
-16.0584,-3.125661,0
-16.0544,7.921453,0
-16.0504,9.790919,0
-16.0474,-0.295713,0
-16.0424,-8.836149,0
-16.0394,-4.971824,0
-16.0324,6.400538,0
-16.0205,8.582721,0
-16.0185,-1.140011,0
-16.0175,-9.471413,0
-16.0165,-5.252819,0
-16.0145,6.097712,0
-16.0104,8.189337,0
-16.0075,-1.651892,0
-16.0029,-9.975955,0
-15.9989,-5.706812,0
-15.9949,5.612219,0
-15.9909,7.681021,0
-15.9866,-1.970332,0
-15.9824,-9.901307,0
-15.9784,-5.567955,0
-15.9744,5.880788,0
-15.9704,7.948427,0
-15.9664,-1.928157,0
-15.9624,-10.090137,0
-15.9584,-5.704870,0
-15.9544,5.652179,0
-15.9434,8.062501,0
-15.9434,-1.425971,0
-15.9424,-9.170620,0
-15.9383,-4.692547,0
-15.9343,6.530856,0
-15.9303,8.540853,0
-15.9263,-1.293083,0
-15.9224,-9.201539,0
-15.9182,-4.698590,0
-15.9149,6.746250,0
-15.9109,8.689156,0
-15.9068,-1.120409,0
-15.9028,-8.978957,0
-15.8988,-4.302507,0
-15.8944,7.174580,0
-15.8904,9.070526,0
-15.8864,-0.741623,0
-15.8813,-8.778276,0
-15.8701,-4.309104,0
-15.8691,6.556820,0
-15.8691,8.330950,0
-15.8661,-1.370140,0
-15.8621,-8.894353,0
-15.8580,-4.040840,0
-15.8541,7.040562,0
-15.8502,8.417443,0
-15.8462,-1.587393,0
-15.8422,-9.318048,0
-15.8381,-4.435291,0
-15.8342,6.891945,0
-15.8301,8.264903,0
-15.8261,-1.865260,0
-15.8222,-9.557676,0
-15.8182,-4.610305,0
-15.8142,6.947121,0
-15.8102,8.559958,0
-15.7986,-1.629316,0
-15.7976,-9.411373,0
-15.7976,-4.593138,0
-15.7946,6.774666,0
-15.7906,8.358434,0
-15.7866,-1.584059,0
-15.7826,-8.947434,0
-15.7783,-4.094068,0
-15.7749,7.152096,0
-15.7709,8.716423,0
-15.7669,-1.325808,0
-15.7619,-8.699912,0
-15.7589,-3.611552,0
-15.7549,7.488153,0
-15.7509,8.676120,0
-15.7464,-1.686708,0
-15.7424,-9.116894,0
-15.7380,-3.869305,0
-15.7340,7.547668,0
-15.7300,8.665905,0
-15.7260,-1.596611,0
-15.7210,-9.279173,0
-15.7169,-4.304496,0
-15.7053,7.152993,0
-15.7053,8.540721,0
-15.7043,-1.285232,0
-15.7023,-8.716704,0
-15.6983,-3.842563,0
-15.6943,7.118610,0
-15.6903,8.224913,0
-15.6863,-1.787350,0
-15.6823,-8.914519,0
-15.6783,-3.485135,0
-15.6743,7.770046,0
-15.6703,8.605532,0
-15.6663,-1.675344,0
-15.6623,-9.096495,0
-15.6583,-4.138149,0
-15.6543,6.622746,0
-15.6503,7.097396,0
-15.6461,-3.548679,0
-15.6421,-10.608433,0
-15.6381,-4.833189,0
-15.6341,6.944899,0
-15.6301,8.615996,0
-15.6261,-1.272680,0
-15.6218,-8.480802,0
-15.6158,-3.384177,0
-15.5973,7.381043,0
-15.5973,7.880660,0
-15.5963,-2.423202,0
-15.5953,-9.384527,0
-15.5953,-3.835817,0
-15.5943,7.396310,0
-15.5898,8.158893,0
-15.5858,-2.106531,0
-15.5818,-9.195715,0
-15.5778,-4.058725,0
-15.5738,6.533425,0
-15.5698,6.963303,0
-15.5658,-3.123574,0
-15.5618,-9.041360,0
-15.5578,-1.874080,0
-15.5538,10.415468,0
-15.5498,11.879180,0
-15.5458,1.621990,0
-15.5425,-6.273984,0
-15.5384,-1.876486,0
-15.5342,7.945022,0
-15.5297,7.608296,0
-15.5257,-3.034022,0
-15.5217,-9.920346,0
-15.5177,-4.347404,0
-15.5137,6.878526,0
-15.5097,7.452212,0
-15.5067,-2.892520,0
-15.4902,-9.739234,0
-15.4882,-4.091443,0
-15.4872,7.126824,0
-15.4862,7.379491,0
-15.4862,-3.166907,0
-15.4822,-9.970004,0
-15.4782,-4.103616,0
-15.4742,6.826183,0
-15.4702,7.126838,0
-15.4662,-2.825161,0
-15.4622,-9.166956,0
-15.4582,-3.176702,0
-15.4542,7.820941,0
-15.4502,7.973138,0
-15.4460,-2.768268,0
-15.4419,-9.764819,0
-15.4379,-4.080791,0
-15.4339,6.714245,0
-15.4299,6.713639,0
-15.4259,-3.760274,0
-15.4219,-10.394589,0
-15.4149,-4.462317,0
-15.4002,6.333551,0
-15.3992,6.553955,0
-15.3992,-3.760835,0
-15.3982,-10.290284,0
-15.3972,-4.384411,0
-15.3942,6.401933,0
-15.3895,6.138047,0
-15.3865,-4.623473,0
-15.3819,-10.951102,0
-15.3779,-4.552839,0
-15.3737,6.482236,0
-15.3697,6.389120,0
-15.3657,-4.166797,0
-15.3622,-10.483119,0
-15.3582,-4.294980,0
-15.3542,6.731708,0
-15.3498,6.585099,0
-15.3458,-3.792005,0
-15.3418,-9.893252,0
-15.3378,-3.622275,0
-15.3308,7.198019,0
-15.3158,7.176793,0
-15.3148,-3.182350,0
-15.3138,-9.200334,0
-15.3128,-2.651693,0
-15.3118,8.481420,0
-15.3098,8.298785,0
-15.3058,-2.178291,0
-15.3013,-7.984235,0
-15.2973,-1.169354,0
-15.2933,10.030371,0
-15.2893,9.811830,0
-15.2853,-0.910163,0
-15.2823,-7.304936,0
-15.2773,-0.836708,0
-15.2733,10.183975,0
-15.2693,9.821223,0
-15.2653,-0.872815,0
-15.2613,-7.146434,0
-15.2573,-0.877842,0
-15.2533,9.896146,0
-15.2493,9.389537,0
-15.2453,-1.212101,0
-15.2410,-7.497974,0
-15.2251,-1.140519,0
-15.2240,9.475030,0
-15.2230,8.500562,0
-15.2220,-2.297176,0
-15.2220,-8.432628,0
-15.2177,-1.882752,0
-15.2137,9.044276,0
-15.2091,8.219622,0
-15.2061,-2.779641,0
-15.2014,-8.898620,0
-15.1974,-2.431326,0
-15.1934,8.317289,0
-15.1894,7.665574,0
-15.1854,-2.957762,0
-15.1814,-8.953358,0
-15.1774,-2.190245,0
-15.1734,8.627577,0
-15.1694,7.911405,0
-15.1654,-2.707409,0
-15.1614,-8.653577,0
-15.1574,-2.002701,0
-15.1531,8.787721,0
-15.1481,7.789440,0
-15.1326,-3.119246,0
-15.1326,-9.087304,0
-15.1316,-2.257230,0
-15.1306,8.407175,0
-15.1296,7.272742,0
-15.1256,-3.523838,0
-15.1216,-9.182463,0
-15.1176,-2.269468,0
-15.1136,8.456405,0
-15.1096,7.330179,0
-15.1056,-3.720074,0
-15.1011,-9.413422,0
-15.0971,-2.256847,0
-15.0931,8.446209,0
-15.0891,7.368810,0
-15.0857,-3.342807,0
-15.0817,-9.028632,0
-15.0777,-2.207460,0
-15.0737,8.414249,0
-15.0684,7.169115,0
-15.0498,-3.918765,0
-15.0498,-9.665031,0
-15.0488,-2.601596,0
-15.0478,8.129678,0
-15.0468,6.924702,0
-15.0458,-4.077390,0
-15.0418,-9.541949,0
-15.0378,-2.180382,0
-15.0338,8.712405,0
-15.0298,7.313363,0
-15.0258,-3.871691,0
-15.0213,-9.728676,0
-15.0177,-2.647333,0
-15.0137,8.281365,0
-15.0087,7.094858,0
-15.0057,-3.501195,0
-15.0012,-8.956019,0
-14.9972,-1.917987,0
-14.9938,8.448011,0
-14.9872,6.691929,0
-14.9712,-4.377502,0
-14.9702,-9.799329,0
-14.9692,-2.481197,0
-14.9692,8.119330,0
-14.9682,6.704922,0
-14.9652,-4.206864,0
-14.9612,-9.563569,0
-14.9572,-2.370731,0
-14.9532,7.821244,0
-14.9489,6.175499,0
-14.9456,-4.879837,0
-14.9416,-10.298191,0
-14.9376,-3.094582,0
-14.9336,7.399060,0
-14.9296,5.796635,0
-14.9256,-4.712618,0
-14.9216,-9.678607,0
-14.9176,-2.190491,0
-14.9134,8.122732,0
-14.9094,6.106773,0
-14.9054,-4.958281,0
-14.9009,-9.861858,0
-14.8939,-2.384001,0
-14.8785,8.102177,0
-14.8755,6.202769,0
-14.8755,-4.767332,0
-14.8745,-9.942239,0
-14.8725,-2.305544,0
-14.8705,8.110669,0
-14.8695,6.335540,0
-14.8655,-4.297796,0
-14.8615,-8.998682,0
-14.8575,-1.416533,0
-14.8535,8.747235,0
-14.8495,6.303668,0
-14.8451,-5.010913,0
-14.8411,-10.244255,0
-14.8371,-2.965274,0
-14.8327,7.665206,0
-14.8287,5.970036,0
-14.8247,-4.753565,0
-14.8213,-9.226246,0
-14.8162,-1.379405,0
-14.8011,9.001577,0
-14.8001,6.726336,0
-14.7991,-4.565258,0
-14.7981,-9.412740,0
-14.7971,-1.788865,0
-14.7931,8.385824,0
-14.7891,6.259757,0
-14.7851,-4.816341,0
-14.7811,-9.505025,0
-14.7771,-1.352384,0
-14.7730,8.740054,0
-14.7688,6.117997,0
-14.7648,-5.225845,0
-14.7608,-10.110351,0
-14.7568,-2.152522,0
-14.7528,8.663692,0
-14.7488,7.646798,0
-14.7446,-1.973533,0
-14.7406,-5.510467,0
-14.7366,2.589515,0
-14.7325,12.063329,0
-14.7281,8.412000,0
-14.7117,-3.753803,0
-14.7117,-9.079964,0
-14.7107,-1.863042,0
-14.7107,7.900382,0
-14.7042,5.622026,0
-14.7029,-5.302546,0
-14.7009,-9.598751,0
-14.6967,-1.658815,0
-14.6927,8.575502,0
-14.6887,6.152216,0
-14.6847,-4.970547,0
-14.6807,-9.380605,0
-14.6767,-1.439902,0
-14.6732,8.304296,0
-14.6687,5.878210,0
-14.6657,-4.869410,0
-14.6610,-8.652276,0
-14.6569,-0.033282,0
-14.6529,10.268908,0
-14.6489,7.564616,0
-14.6446,-3.899997,0
-14.6304,-8.674061,0
-14.6284,-1.005213,0
-14.6284,8.655145,0
-14.6274,5.943283,0
-14.6244,-4.997239,0
-14.6210,-9.269145,0
-14.6170,-1.360067,0
-14.6130,8.180860,0
-14.6090,5.074034,0
-14.6050,-5.973082,0
-14.6005,-10.007189,0
-14.5965,-1.510599,0
-14.5925,8.357841,0
-14.5885,5.563163,0
-14.5845,-5.610594,0
-14.5805,-9.844425,0
-14.5765,-1.565676,0
-14.5725,8.349524,0
-14.5685,5.214728,0
-14.5645,-6.071942,0
-14.5610,-10.083968,0
-14.5570,-1.568173,0
-14.5510,8.321871,0
-14.5359,5.288687,0
-14.5349,-5.425782,0
-14.5339,-8.884952,0
-14.5329,-0.402673,0
-14.5319,9.358465,0
-14.5289,6.215838,0
-14.5249,-4.724260,0
-14.5205,-8.050660,0
-14.5165,0.681652,0
-14.5125,10.703165,0
-14.5085,7.745692,0
-14.5055,-3.142109,0
-14.5010,-6.641274,0
-14.4970,1.797432,0
-14.4927,11.438181,0
-14.4887,8.290944,0
-14.4847,-2.592503,0
-14.4807,-6.220941,0
-14.4737,2.396689,0
-14.4567,12.028850,0
-14.4557,8.625399,0
-14.4557,-2.176396,0
-14.4547,-5.501649,0
-14.4537,3.158502,0
-14.4527,12.553621,0
-14.4487,8.909826,0
-14.4443,-2.402493,0
-14.4403,-6.179219,0
-14.4363,2.498560,0
-14.4323,11.915408,0
-14.4289,8.256369,0
-14.4249,-2.714575,0
-14.4209,-6.268765,0
-14.4168,2.150106,0
-14.4128,11.252197,0
-14.4083,7.580114,0
-14.4053,-3.510409,0
-14.3998,-7.003105,0
-14.3948,1.648915,0
-14.3748,11.076880,0
-14.3718,7.299457,0
-14.3708,-3.773756,0
-14.3698,-6.952419,0
-14.3698,1.972336,0
-14.3688,11.373314,0
-14.3688,7.616431,0
-14.3638,-3.624603,0
-14.3598,-6.908155,0
-14.3568,1.741885,0
-14.3518,10.867234,0
-14.3478,7.014393,0
-14.3438,-3.927295,0
-14.3398,-6.987479,0
-14.3358,2.113271,0
-14.3324,11.332021,0
-14.3284,7.288997,0
-14.3244,-3.791939,0
-14.3198,-6.768895,0
-14.3168,2.093260,0
-14.3128,11.184717,0
-14.3088,7.247252,0
-14.3048,-3.947194,0
-14.3007,-7.066460,0
-14.2967,1.908198,0
-14.2927,11.077534,0
-14.2877,7.015358,0
-14.2733,-3.918699,0
-14.2733,-7.008345,0
-14.2723,1.877793,0
-14.2713,10.912021,0
-14.2683,6.577873,0
-14.2643,-4.554314,0
-14.2603,-7.528993,0
-14.2563,1.566358,0
-14.2523,10.698611,0
-14.2483,6.555432,0
-14.2443,-4.333810,0
-14.2403,-7.317977,0
-14.2363,1.290084,0
-14.2323,9.851285,0
-14.2283,5.612268,0
-14.2243,-5.187519,0
-14.2203,-7.829418,0
-14.2163,1.268540,0
-14.2126,10.112112,0
-14.2086,5.826556,0
-14.1941,-5.177056,0
-14.1911,-7.893187,0
-14.1871,0.845496,0
-14.1851,9.635545,0
-14.1841,5.499214,0
-14.1841,-5.246231,0
-14.1801,-7.958058,0
-14.1765,0.882884,0
-14.1725,9.499603,0
-14.1685,5.019725,0
-14.1645,-5.873060,0
-14.1600,-8.295081,0
-14.1560,0.781008,0
-14.1520,9.223361,0
-14.1476,4.600356,0
-14.1446,-6.392907,0
-14.1406,-8.938081,0
-14.1366,0.294826,0
-14.1315,8.751164,0
-14.1285,4.062398,0
-14.1245,-6.787849,0
-14.1203,-9.261406,0
-14.1142,0.132904,0
-14.0987,8.869995,0
-14.0957,4.457601,0
-14.0957,-6.357339,0
-14.0947,-8.753419,0
-14.0927,0.471744,0
-14.0917,9.043068,0
-14.0877,4.241497,0
-14.0837,-6.770954,0
-14.0797,-9.089896,0
-14.0757,0.114110,0
-14.0724,8.472500,0
-14.0684,3.407674,0
-14.0644,-7.408926,0
-14.0604,-9.535925,0
-14.0564,-0.727172,0
-14.0524,7.210683,0
-14.0479,2.222964,0
-14.0439,-8.325810,0
-14.0385,-9.828113,0
-14.0242,0.133176,0
-14.0242,8.766009,0
-14.0232,3.727909,0
-14.0232,-7.387225,0
-14.0192,-9.853344,0
-14.0162,-0.687009,0
-14.0112,7.593210,0
-14.0082,2.774447,0
-14.0037,-7.848981,0
-13.9997,-9.679104,0
-13.9957,-0.176581,0
-13.9917,7.808053,0
-13.9875,2.710435,0
-13.9835,-8.004594,0
-13.9795,-10.139210,0
-13.9755,-1.057963,0
-13.9715,7.159453,0
-13.9675,2.294617,0
-13.9632,-7.908281,0
-13.9482,-8.469297,0
-13.9472,2.367306,0
-13.9462,11.131443,0
-13.9462,5.936561,0
-13.9442,-5.716996,0
-13.9402,-8.911598,0
-13.9362,-0.694832,0
-13.9312,6.706048,0
-13.9282,1.322532,0
-13.9242,-9.057537,0
-13.9202,-10.465016,0
-13.9162,-0.574729,0
-13.9112,7.664911,0
-13.9079,2.334643,0
-13.9034,-8.738836,0
-13.8993,-10.239715,0
-13.8963,-0.328037,0
-13.8913,7.487570,0
-13.8843,2.027834,0
-13.8693,-8.696494,0
-13.8683,-10.420211,0
-13.8673,-0.767078,0
-13.8653,7.334384,0
-13.8613,2.079851,0
-13.8593,-8.375398,0
-13.8583,-9.785423,0
-13.8553,-0.434151,0
-13.8513,7.254574,0
-13.8480,2.055539,0
-13.8440,-8.224741,0
-13.8397,-8.964392,0
-13.8357,0.995042,0
-13.8317,8.432524,0
-13.8277,2.212785,0
-13.8237,-9.185409,0
-13.8197,-10.883682,0
-13.8157,-1.047129,0
-13.8117,6.885903,0
-13.8065,1.318038,0
-13.7952,-9.501661,0
-13.7942,-10.959021,0
-13.7882,-1.282097,0
-13.7862,6.377878,0
-13.7852,0.887856,0
-13.7832,-9.522751,0
-13.7792,-10.777623,0
-13.7751,-1.033382,0
-13.7721,6.493104,0
-13.7676,0.499773,0
-13.7636,-10.111708,0
-13.7596,-10.918533,0
-13.7556,-0.738756,0
-13.7516,6.831069,0
-13.7476,0.753923,0
-13.7442,-9.936046,0
-13.7392,-10.771721,0
-13.7352,-0.622321,0
-13.7318,7.232592,0
-13.7273,1.690009,0
-13.7233,-8.970193,0
-13.7193,-9.816119,0
-13.7156,0.575243,0
-13.6991,8.152736,0
-13.6981,2.407129,0
-13.6981,-8.049910,0
-13.6971,-8.715839,0
-13.6951,1.440295,0
-13.6911,9.059416,0
-13.6871,3.249816,0
-13.6835,-7.494981,0
-13.6791,-8.312846,0
-13.6754,2.185332,0
-13.6712,9.673271,0
-13.6672,3.609575,0
-13.6632,-7.045351,0
-13.6592,-7.653874,0
-13.6552,2.771661,0
-13.6512,10.218049,0
-13.6472,3.947214,0
-13.6432,-7.033724,0
-13.6392,-8.161086,0
-13.6352,1.530666,0
-13.6310,8.437143,0
-13.6276,2.030826,0
-13.6216,-8.623359,0
-13.5997,-9.435286,0
-13.5987,0.616069,0
-13.5977,8.111591,0
-13.5977,2.211681,0
-13.5957,-8.281091,0
-13.5957,-8.943036,0
-13.5947,1.264514,0
-13.5912,8.292114,0
-13.5872,2.233403,0
-13.5832,-8.157387,0
-13.5792,-8.712420,0
-13.5762,1.583910,0
-13.5717,9.163006,0
-13.5677,3.080340,0
-13.5637,-7.734064,0
-13.5597,-8.423286,0
-13.5557,1.665231,0
-13.5517,8.506003,0
-13.5467,1.959034,0
-13.5437,-8.590295,0
-13.5397,-8.727283,0
-13.5357,1.805064,0
-13.5312,8.955460,0
-13.5272,2.763211,0
-13.5232,-7.641908,0
-13.5192,-8.051357,0
-13.5132,1.961815,0
-13.4997,8.699736,0
-13.4987,2.192786,0
-13.4977,-8.258992,0
-13.4967,-8.471999,0
-13.4957,1.974013,0
-13.4911,8.971056,0
-13.4871,2.636106,0
-13.4831,-7.714811,0
-13.4791,-7.889766,0
-13.4751,2.305994,0
-13.4711,9.003464,0
-13.4671,2.215766,0
-13.4631,-8.477779,0
-13.4591,-8.770285,0
-13.4551,1.736371,0
-13.4511,8.862445,0
-13.4471,2.292197,0
-13.4431,-7.996776,0
-13.4351,-8.410146,0
-13.4301,1.820192,0
-13.4291,8.590243,0
-13.4221,1.907297,0
-13.4211,-8.379130,0
-13.4161,-8.163608,0
-13.4141,2.459479,0
-13.4111,9.325641,0
-13.4071,2.567538,0
-13.4026,-7.792313,0
-13.3985,-7.798773,0
-13.3955,2.604601,0
-13.3915,9.326991,0
-13.3875,2.562336,0
-13.3834,-8.082833,0
-13.3794,-8.477577,0
-13.3754,1.681246,0
-13.3714,8.094604,0
-13.3674,1.446312,0
-13.3634,-8.377415,0
-13.3594,-7.818807,0
-13.3554,2.913379,0
-13.3514,9.401438,0
-13.3440,2.477591,0
-13.3320,-7.865626,0
-13.3280,-7.673877,0
-13.3270,2.682330,0
-13.3260,9.202845,0
-13.3240,2.510774,0
-13.3230,-7.756279,0
-13.3190,-7.748005,0
-13.3150,2.575094,0
-13.3109,8.973580,0
-13.3069,2.269176,0
-13.3034,-7.845198,0
-13.2984,-7.646619,0
-13.2944,2.650173,0
-13.2904,9.057254,0
-13.2864,2.764254,0
-13.2824,-6.010278,0
-13.2784,-4.254448,0
-13.2744,6.826586,0
-13.2714,12.875159,0
-13.2670,4.695869,0
-13.2629,-6.688911,0
-13.2589,-7.335193,0
-13.2549,2.622467,0
-13.2415,8.586764,0
-13.2405,1.410299,0
-13.2395,-8.613116,0
-13.2395,-7.996714,0
-13.2351,2.712296,0
-13.2311,8.795864,0
-13.2271,1.718820,0
-13.2230,-8.331986,0
-13.2190,-7.701159,0
-13.2149,2.797846,0
-13.2106,8.525753,0
-13.2071,1.173558,0
-13.2026,-8.661924,0
-13.1976,-7.711722,0
-13.1946,3.010464,0
-13.1906,8.759361,0
-13.1866,1.456695,0
-13.1826,-8.747712,0
-13.1786,-8.083708,0
-13.1746,2.673644,0
-13.1556,8.667031,0
-13.1546,1.486328,0
-13.1546,-8.597263,0
-13.1536,-7.985897,0
-13.1526,2.501182,0
-13.1506,8.146731,0
-13.1466,1.060854,0
-13.1426,-8.663162,0
-13.1386,-7.888581,0
-13.1346,2.755726,0
-13.1306,8.528652,0
-13.1266,0.967295,0
-13.1226,-9.141982,0
-13.1186,-8.127646,0
-13.1146,2.630038,0
-13.1106,8.205107,0
-13.1066,0.596714,0
-13.1031,-9.454650,0
-13.0991,-8.330827,0
-13.0951,2.471663,0
-13.0911,8.279798,0
-13.0841,0.957417,0
-13.0791,-8.920414,0
-13.0791,-7.967939,0
-13.0728,2.556528,0
-13.0656,8.136878,0
-13.0646,0.717016,0
-13.0626,-8.751002,0
-13.0586,-6.994960,0
-13.0546,4.142208,0
-13.0506,9.885769,0
-13.0466,2.435823,0
-13.0426,-7.358663,0
-13.0383,-6.095587,0
-13.0343,4.583806,0
-13.0303,10.145134,0
-13.0263,2.655299,0
-13.0223,-6.957499,0
-13.0183,-5.534432,0
-13.0143,5.587904,0
-13.0103,11.017213,0
-13.0061,3.401118,0
-13.0013,-6.518525,0
-12.9883,-5.252850,0
-12.9873,5.616533,0
-12.9873,10.926107,0
-12.9843,2.966152,0
-12.9823,-7.035662,0
-12.9779,-5.541215,0
-12.9739,5.031936,0
-12.9699,10.057763,0
-12.9659,2.374529,0
-12.9619,-7.480841,0
-12.9579,-6.193885,0
-12.9539,4.292171,0
-12.9509,9.282491,0
-12.9469,1.339978,0
-12.9419,-8.213776,0
-12.9389,-6.606064,0
-12.9339,4.105644,0
-12.9271,8.870104,0
-12.9128,0.621843,0
-12.9098,-9.270494,0
-12.9068,-7.580716,0
-12.9058,3.502886,0
-12.9048,8.638554,0
-12.9048,0.729522,0
-12.9023,-9.032292,0
-12.8983,-7.408987,0
-12.8943,3.771651,0
-12.8903,9.095707,0
-12.8863,1.258487,0
-12.8823,-8.317385,0
-12.8783,-6.883561,0
-12.8743,3.913015,0
-12.8703,8.903914,0
-12.8663,0.780833,0
-12.8623,-8.751195,0
-12.8583,-6.727582,0
-12.8523,4.356439,0
-12.8370,9.043066,0
-12.8360,1.125738,0
-12.8360,-8.350520,0
-12.8360,-6.299084,0
-12.8340,5.040422,0
-12.8300,10.107170,0
-12.8260,1.802506,0
-12.8220,-8.272481,0
-12.8180,-7.017062,0
-12.8140,3.726840,0
-12.8100,8.969719,0
-12.8060,1.205637,0
-12.8025,-8.200074,0
-12.7985,-6.121157,0
-12.7945,4.786941,0
-12.7895,9.394764,0
-12.7862,1.038392,0
-12.7822,-8.414595,0
-12.7758,-6.430746,0
-12.7597,4.360803,0
-12.7587,9.052192,0
-12.7587,0.876681,0
-12.7577,-8.578060,0
-12.7567,-6.465052,0
-12.7537,4.743907,0
-12.7507,9.371071,0
-12.7457,0.836425,0
-12.7417,-8.892575,0
-12.7386,-7.102558,0
-12.7346,3.906826,0
-12.7306,8.547238,0
-12.7266,0.568388,0
-12.7226,-8.440881,0
-12.7186,-6.262861,0
-12.7139,4.602821,0
-12.7099,8.870675,0
-12.7059,0.440008,0
-12.7024,-8.844979,0
-12.6933,-6.366806,0
-12.6783,5.057417,0
-12.6743,9.672433,0
-12.6723,1.242928,0
-12.6703,-8.388280,0
-12.6693,-6.260447,0
-12.6683,5.047055,0
-12.6683,9.812044,0
-12.6663,1.617728,0
-12.6613,-7.850760,0
-12.6583,-5.850492,0
-12.6543,4.818104,0
-12.6502,8.604436,0
-12.6462,-0.162275,0
-12.6422,-9.494506,0
-12.6382,-6.865764,0
-12.6342,4.735318,0
-12.6302,9.392545,0
-12.6262,0.908700,0
-12.6222,-8.024946,0
-12.6182,-5.543245,0
-12.6142,5.425903,0
-12.6102,9.449716,0
-12.6006,0.757171,0
-12.5901,-8.553522,0
-12.5851,-6.026735,0
-12.5841,5.031176,0
-12.5841,9.029817,0
-12.5831,0.491447,0
-12.5821,-8.677234,0
-12.5781,-6.152851,0
-12.5741,4.597943,0
-12.5697,8.449169,0
-12.5663,0.159388,0
-12.5623,-8.289209,0
-12.5583,-4.476862,0
-12.5543,8.172263,0
-12.5503,13.417674,0
-12.5463,4.891118,0
-12.5419,-5.021750,0
-12.5379,-3.687473,0
-12.5339,6.132812,0
-12.5299,9.263320,0
-12.5259,-0.044387,0
-12.5219,-9.261886,0
-12.5179,-6.531485,0
-12.5139,4.647347,0
-12.5089,8.518027,0
-12.4953,0.015581,0
-12.4953,-8.821013,0
-12.4943,-6.097444,0
-12.4933,4.881975,0
-12.4893,8.472813,0
-12.4863,-0.281646,0
-12.4813,-9.150794,0
-12.4773,-6.241791,0
-12.4733,4.662532,0
-12.4703,8.264050,0
-12.4653,-0.498262,0
-12.4613,-9.357931,0
-12.4573,-6.356876,0
-12.4533,4.636062,0
-12.4493,8.457403,0
-12.4453,-0.232349,0
-12.4413,-8.981328,0
-12.4373,-5.998586,0
-12.4333,4.972260,0
-12.4280,8.382919,0
-12.4130,-0.472760,0
-12.4100,-9.378069,0
-12.4090,-6.548444,0
-12.4080,4.334413,0
-12.4070,7.856487,0
-12.4060,-0.984682,0
-12.4025,-9.687144,0
-12.3981,-6.853087,0
-12.3931,3.826085,0
-12.3901,7.045766,0
-12.3861,-1.547359,0
-12.3811,-9.831443,0
-12.3781,-6.233005,0
-12.3733,5.036688,0
-12.3693,8.284736,0
-12.3653,-1.019014,0
-12.3613,-9.774312,0
-12.3573,-6.689544,0
-12.3533,4.321966,0
-12.3493,7.752197,0
-12.3453,-0.857579,0
-12.3413,-9.276672,0
-12.3373,-5.719019,0
-12.3319,5.595467,0
-12.3171,9.111789,0
-12.3166,0.597188,0
-12.3160,-7.329777,0
-12.3155,-3.980457,0
-12.3132,6.857830,0
-12.3093,9.828394,0
-12.3048,1.211318,0
-12.3012,-6.746457,0
-12.2972,-2.781839,0
-12.2932,8.403041,0
-12.2889,11.382710,0
-12.2849,2.172502,0
-12.2819,-6.300960,0
-12.2769,-2.685468,0
-12.2739,8.481409,0
-12.2699,11.477999,0
-12.2659,2.330799,0
-12.2619,-6.139041,0
-12.2569,-2.729232,0
-12.2529,8.099366,0
-12.2495,10.838229,0
-12.2455,1.543552,0
-12.2375,-7.017470,0
-12.2235,-3.493336,0
-12.2225,7.334410,0
-12.2215,9.828351,0
-12.2215,0.528438,0
-12.2205,-7.828912,0
-12.2175,-4.300318,0
-12.2137,6.777182,0
-12.2097,9.351041,0
-12.2057,0.079526,0
-12.2012,-8.194219,0
-12.1972,-4.662759,0
-12.1932,6.578696,0
-12.1892,9.152414,0
-12.1852,-0.091201,0
-12.1812,-8.258118,0
-12.1772,-4.590724,0
-12.1732,6.384297,0
-12.1692,8.957107,0
-12.1652,-0.268276,0
-12.1612,-8.420744,0
-12.1572,-4.721109,0
-12.1532,6.363288,0
-12.1464,8.891313,0
-12.1322,-0.355153,0
-12.1302,-8.512077,0
-12.1292,-4.597411,0
-12.1292,6.384769,0
-12.1282,8.758303,0
-12.1253,-0.496094,0
-12.1212,-8.427339,0
-12.1172,-4.164916,0
-12.1132,7.133235,0
-12.1092,9.582220,0
-12.1052,0.178522,0
-12.1007,-8.148613,0
-12.0977,-4.502350,0
-12.0927,6.292769,0
-12.0897,8.523939,0
-12.0852,-0.742746,0
-12.0812,-8.627324,0
-12.0772,-4.597012,0
-12.0732,6.333428,0
-12.0692,8.378338,0
-12.0652,-1.163489,0
-12.0612,-8.785276,0
-12.0552,-4.730658,0
-12.0397,6.298219,0
-12.0387,8.711248,0
-12.0377,-0.679679,0
-12.0377,-8.713297,0
-12.0367,-4.600902,0
-12.0327,6.456453,0
-12.0287,8.440311,0
-12.0254,-1.148615,0
-12.0214,-9.108830,0
-12.0174,-4.992707,0
-12.0134,5.959819,0
-12.0094,7.999059,0
-12.0054,-1.516553,0
-12.0009,-9.410028,0
-11.9969,-4.902212,0
-11.9929,6.080098,0
-11.9894,7.785530,0
-11.9854,-1.635659,0
-11.9814,-9.435813,0
-11.9744,-5.018926,0
-11.9594,6.218765,0
-11.9594,7.948208,0
-11.9584,-1.801668,0
-11.9574,-9.473247,0
-11.9564,-4.763529,0
-11.9534,6.439264,0
-11.9494,8.313722,0
-11.9449,-1.337338,0
-11.9409,-9.083097,0
-11.9369,-4.537361,0
-11.9329,6.488900,0
-11.9289,8.373896,0
-11.9253,-1.219316,0
-11.9209,-8.861694,0
-11.9169,-4.472826,0
-11.9129,6.349510,0
-11.9089,7.909359,0
-11.9049,-1.797301,0
-11.9014,-9.257049,0
-11.8964,-4.377170,0
-11.8691,6.702101,0
-11.8638,8.444064,0
-11.8618,-1.244549,0
-11.8598,-8.650595,0
-11.8588,-3.683308,0
-11.8588,7.086507,0
-11.8578,8.214172,0
-11.8578,-1.866485,0
-11.8578,-9.850752,0
-11.8568,-5.609482,0
-11.8528,5.227305,0
-11.8488,6.923303,0
-11.8448,-2.251875,0
-11.8408,-9.128899,0
-11.8366,-3.874383,0
-11.8326,7.260003,0
-11.8286,8.517555,0
-11.8249,-1.555766,0
-11.8209,-9.268394,0
-11.8169,-4.420707,0
-11.8129,6.856053,0
-11.8087,8.532383,0
-11.8047,-1.313202,0
-11.8012,-8.766476,0
-11.7972,-3.839274,0
-11.7932,7.078982,0
-11.7892,8.151780,0
-11.7852,-2.182397,0
-11.7812,-9.780326,0
-11.7762,-4.792792,0
-11.7578,6.529961,0
-11.7568,8.681493,0
-11.7568,0.119117,0
-11.7558,-5.894523,0
-11.7558,-0.250145,0
-11.7528,10.771278,0
-11.7488,11.070513,0
-11.7448,-0.130128,0
-11.7408,-8.521761,0
-11.7368,-4.381750,0
-11.7329,6.194098,0
-11.7289,7.143406,0
-11.7249,-2.664507,0
-11.7209,-9.712964,0
-11.7169,-4.644915,0
-11.7122,6.027860,0
-11.7082,6.872728,0
-11.7048,-3.090727,0
-11.7003,-10.070862,0
-11.6963,-4.642050,0
-11.6833,6.445440,0
-11.6813,7.251990,0
-11.6803,-2.811405,0
-11.6793,-9.860391,0
-11.6763,-4.518226,0
-11.6723,6.282560,0
-11.6683,7.002060,0
-11.6643,-3.043330,0
-11.6603,-10.032713,0
-11.6563,-4.503064,0
-11.6523,6.636712,0
-11.6483,7.654521,0
-11.6443,-2.216364,0
-11.6403,-9.261210,0
-11.6363,-4.266487,0
-11.6323,6.314490,0
-11.6283,6.820380,0
-11.6243,-3.485337,0
-11.6203,-10.469622,0
-11.6163,-4.988355,0
-11.6123,6.028713,0
-11.6083,6.744715,0
-11.6043,-3.464619,0
-11.6002,-10.424769,0
-11.5962,-4.947499,0
-11.5912,5.661235,0
-11.5722,5.812716,0
-11.5692,-4.263394,0
-11.5672,-10.772229,0
-11.5662,-4.826990,0
-11.5652,6.064010,0
-11.5642,6.237101,0
-11.5642,-4.118653,0
-11.5602,-10.697235,0
-11.5562,-4.668885,0
-11.5522,6.312707,0
-11.5482,6.890632,0
-11.5442,-3.107799,0
-11.5402,-9.644941,0
-11.5362,-3.592250,0
-11.5322,7.400210,0
-11.5282,8.015457,0
-11.5232,-2.085913,0
-11.5202,-8.461392,0
-11.5162,-2.251149,0
-11.5122,8.774867,0
-11.5082,8.839027,0
-11.5042,-1.400813,0
-11.5007,-7.628275,0
-11.4954,-1.313548,0
-11.4650,9.725693,0
-11.4620,9.482504,0
-11.4590,-1.295624,0
-11.4560,-7.760528,0
-11.4540,-1.511337,0
-11.4530,9.497857,0
-11.4520,9.553295,0
-11.4500,-0.795278,0
-11.4470,-7.324402,0
-11.4470,-1.354963,0
-11.4470,9.244919,0
-11.4460,8.968144,0
-11.4440,-1.694426,0
-11.4400,-8.222909,0
-11.4358,-1.882632,0
-11.4328,9.035541,0
-11.4284,8.637708,0
-11.4244,-2.193082,0
-11.4204,-8.771363,0
-11.4164,-2.770842,0
-11.4118,7.911299,0
-11.4088,7.751751,0
-11.4045,-2.888105,0
-11.4000,-9.084237,0
-11.3960,-2.727109,0
-11.3860,8.236527,0
-11.3740,7.915404,0
-11.3730,-2.860898,0
-11.3720,-9.100126,0
-11.3710,-2.526897,0
-11.3640,8.352112,0
-11.3610,7.796126,0
-11.3600,-3.261022,0
-11.3590,-9.456679,0
-11.3560,-2.920574,0
-11.3520,8.016861,0
-11.3480,7.573793,0
-11.3440,-3.090152,0
-11.3400,-9.107553,0
-11.3360,-2.662914,0
-11.3320,8.135655,0
-11.3280,7.638044,0
-11.3245,-3.409346,0
-11.3205,-9.725291,0
-11.3165,-3.234122,0
-11.3122,7.548495,0
-11.3082,6.755176,0
-11.3042,-3.893855,0
-11.2996,-9.641606,0
-11.2933,-2.700877,0
-11.2793,8.282381,0
-11.2793,7.621656,0
-11.2781,-3.381790,0
-11.2781,-9.692729,0
-11.2760,-3.053520,0
-11.2720,7.823881,0
-11.2678,7.128083,0
-11.2638,-3.633715,0
-11.2598,-9.617580,0
-11.2564,-2.773195,0
-11.2524,8.059374,0
-11.2484,7.226999,0
-11.2444,-3.866726,0
-11.2394,-9.909839,0
-11.2364,-3.199651,0
-11.2324,7.528572,0
-11.2280,6.456209,0
-11.2240,-4.588870,0
-11.2200,-10.432239,0
-11.2160,-3.225378,0
-11.2120,8.078059,0
-11.2080,7.157079,0
-11.2033,-3.914609,0
-11.1998,-10.077131,0
-11.1868,-3.497164,0
-11.1848,7.210162,0
-11.1838,6.064754,0
-11.1828,-4.653058,0
-11.1798,-10.091818,0
-11.1758,-2.781298,0
-11.1718,8.154657,0
-11.1678,6.911956,0
-11.1638,-4.254759,0
-11.1598,-10.134818,0
-11.1554,-3.103721,0
-11.1520,7.674677,0
-11.1480,6.632654,0
-11.1440,-4.280470,0
-11.1400,-10.091592,0
-11.1360,-3.066414,0
-11.1320,7.892139,0
-11.1280,6.807787,0
-11.1240,-4.085535,0
-11.1200,-9.804898,0
-11.1156,-2.770743,0
-11.1114,7.804478,0
-11.1084,6.275231,0
-11.1018,-4.707451,0
-11.0881,-9.943092,0
-11.0871,-2.544376,0
-11.0871,8.445789,0
-11.0861,6.828209,0
-11.0841,-4.943114,0
-11.0801,-11.150199,0
-11.0757,-4.380562,0
-11.0717,6.259041,0
-11.0677,5.075305,0
-11.0637,-5.590410,0
-11.0597,-10.234532,0
-11.0557,-2.362619,0
-11.0517,8.465441,0
-11.0477,6.994092,0
-11.0437,-4.256274,0
-11.0397,-10.038946,0
-11.0357,-2.937641,0
-11.0317,7.721624,0
-11.0277,6.352862,0
-11.0237,-4.697892,0
-11.0177,-9.969432,0
-11.0054,-2.555619,0
-11.0054,7.835463,0
-11.0044,6.108560,0
-11.0034,-5.168369,0
-10.9999,-10.842707,0
-10.9959,-3.514376,0
-10.9919,7.422404,0
-10.9879,6.594576,0
-10.9839,-2.937772,0
-10.9799,-6.527058,0
-10.9759,1.764016,0
-10.9715,12.017691,0
-10.9675,9.188718,0
-10.9635,-3.195366,0
-10.9595,-9.275818,0
-10.9555,-2.384268,0
-10.9515,7.744046,0
-10.9475,5.807042,0
-10.9395,-5.246615,0
-10.9235,-10.157979,0
-10.9235,-2.228582,0
-10.9225,8.196997,0
-10.9225,6.229565,0
-10.9225,-4.947042,0
-10.9195,-9.855543,0
-10.9155,-2.130135,0
-10.9115,8.471853,0
-10.9076,6.605231,0
-10.9036,-4.671446,0
-10.8994,-9.899242,0
-10.8954,-2.339533,0
-10.8914,7.995000,0
-10.8874,5.821152,0
-10.8834,-5.362890,0
-10.8794,-10.203833,0
-10.8754,-2.009187,0
-10.8714,8.660218,0
-10.8674,6.410502,0
-10.8634,-4.947018,0
-10.8594,-9.941466,0
-10.8554,-2.163202,0
-10.8514,8.258002,0
-10.8474,6.018973,0
-10.8314,-5.162411,0
-10.8314,-10.084334,0
-10.8304,-2.430920,0
-10.8304,7.577142,0
-10.8274,5.180588,0
-10.8234,-5.819318,0
-10.8194,-10.341952,0
-10.8154,-2.391865,0
-10.8114,7.721330,0
-10.8073,4.995816,0
-10.8039,-6.329489,0
-10.7991,-10.913987,0
-10.7951,-2.720706,0
-10.7911,7.722978,0
-10.7871,5.109671,0
-10.7831,-6.356368,0
-10.7791,-11.156264,0
-10.7751,-2.920233,0
-10.7715,7.861253,0
-10.7655,5.836985,0
-10.7515,-5.065187,0
-10.7505,-9.370631,0
-10.7505,-1.426148,0
-10.7495,8.641704,0
-10.7471,6.107519,0
-10.7431,-4.735367,0
-10.7391,-8.786358,0
-10.7361,-0.418403,0
-10.7312,9.728334,0
-10.7272,6.922316,0
-10.7232,-4.088967,0
-10.7192,-8.163476,0
-10.7152,0.308273,0
-10.7112,10.878369,0
-10.7070,8.233355,0
-10.7033,-3.212724,0
-10.6992,-7.575216,0
-10.6950,0.946141,0
-10.6911,11.336987,0
-10.6864,8.671932,0
-10.6679,-2.626657,0
-10.6679,-7.074761,0
-10.6669,0.959696,0
-10.6669,10.904598,0
-10.6659,7.823430,0
-10.6629,-3.696216,0
-10.6589,-8.106176,0
-10.6549,0.071925,0
-10.6509,9.818263,0
-10.6469,6.623301,0
-10.6429,-4.813343,0
-10.6389,-8.893756,0
-10.6349,-0.547350,0
-10.6309,9.261544,0
-10.6278,5.976638,0
-10.6230,-5.143301,0
-10.6196,-8.978316,0
-10.6156,-0.413926,0
-10.6116,9.489346,0
-10.6076,6.236111,0
-10.6034,-5.185587,0
-10.5992,-9.202694,0
-10.5952,-0.589624,0
-10.5832,9.260584,0
-10.5832,5.737232,0
-10.5822,-5.639565,0
-10.5792,-9.653950,0
-10.5752,-0.925265,0
-10.5712,9.136443,0
-10.5672,5.968984,0
-10.5628,-5.309725,0
-10.5587,-9.083111,0
-10.5555,-0.252801,0
-10.5515,9.625281,0
-10.5475,6.175724,0
-10.5425,-5.232439,0
-10.5395,-9.099090,0
-10.5351,-0.101236,0
-10.5311,9.652815,0
-10.5271,6.254865,0
-10.5161,-5.212244,0
-10.5006,-9.042589,0
-10.4996,-0.425709,0
-10.4996,9.310236,0
-10.4986,5.982008,0
-10.4966,-5.443420,0
-10.4946,-9.248010,0
-10.4936,-0.646827,0
-10.4906,8.948148,0
-10.4866,5.319876,0
-10.4826,-6.136236,0
-10.4786,-9.533896,0
-10.4746,-0.534386,0
-10.4706,9.169975,0
-10.4666,5.313393,0
-10.4626,-6.338229,0
-10.4586,-10.068073,0
-10.4546,-0.962007,0
-10.4506,8.811582,0
-10.4466,5.234823,0
-10.4426,-5.794124,0
-10.4378,-9.251994,0
-10.4156,-0.362574,0
-10.4146,9.141615,0
-10.4136,5.352644,0
-10.4136,-6.198817,0
-10.4136,-9.678875,0
-10.4126,-0.617038,0
-10.4106,9.000597,0
-10.4066,5.156195,0
-10.4026,-6.649640,0
-10.3991,-10.295272,0
-10.3951,-1.373208,0
-10.3901,8.488322,0
-10.3870,4.941904,0
-10.3831,-6.103086,0
-10.3786,-9.327325,0
-10.3746,0.068021,0
-10.3706,9.828133,0
-10.3666,6.019298,0
-10.3626,-5.477661,0
-10.3586,-9.079925,0
-10.3546,-0.237402,0
-10.3506,9.318008,0
-10.3466,5.370585,0
-10.3431,-6.233020,0
-10.3391,-9.498166,0
-10.3349,-0.266015,0
-10.3299,9.154616,0
-10.3179,5.182829,0
-10.3169,-6.138712,0
-10.3109,-9.476824,0
-10.3109,-0.219399,0
-10.3099,9.818445,0
-10.3069,6.953175,0
-10.3029,-3.245010,0
-10.2986,-5.837959,0
-10.2946,3.144512,0
-10.2906,11.556659,0
-10.2866,6.044094,0
-10.2826,-6.363275,0
-10.2786,-10.050530,0
-10.2746,-1.025281,0
-10.2706,8.445037,0
-10.2666,4.457210,0
-10.2626,-6.715983,0
-10.2586,-9.469358,0
-10.2546,-0.025803,0
-10.2506,9.198735,0
-10.2466,5.024697,0
-10.2426,-6.249400,0
-10.2365,-9.184348,0
-10.2235,0.047908,0
-10.2145,9.090779,0
-10.2115,4.574202,0
-10.2088,-6.632981,0
-10.2088,-9.431901,0
-10.2077,-0.061486,0
-10.2067,9.219841,0
-10.2067,4.831008,0
-10.2028,-6.344632,0
-10.1982,-8.995985,0
-10.1942,0.318295,0
-10.1902,9.526901,0
-10.1862,5.043576,0
-10.1822,-6.251056,0
-10.1782,-8.798724,0
-10.1742,0.668366,0
-10.1712,9.688174,0
-10.1667,5.122737,0
-10.1629,-6.172688,0
-10.1589,-8.819467,0
-10.1549,0.772241,0
-10.1505,9.697269,0
-10.1465,4.924470,0
-10.1425,-6.451757,0
-10.1385,-8.986198,0
-10.1345,0.431526,0
-10.1305,9.315414,0
-10.1265,4.594101,0
-10.1225,-6.643369,0
-10.1185,-9.214792,0
-10.1125,0.359609,0
-10.1035,9.433505,0
-10.0993,5.022969,0
-10.0983,-6.003870,0
-10.0973,-8.270497,0
-10.0943,1.336107,0
-10.0903,10.020952,0
-10.0863,5.248263,0
-10.0823,-5.447191,0
-10.0782,-6.962447,0
-10.0742,3.209884,0
-10.0702,11.948580,0
-10.0662,6.634859,0
-10.0622,-4.862456,0
-10.0582,-6.916128,0
-10.0542,3.165914,0
-10.0502,11.872247,0
-10.0462,6.791371,0
-10.0422,-4.400382,0
-10.0382,-6.226125,0
-10.0342,3.864445,0
-10.0302,12.661216,0
-10.0262,7.422688,0
-10.0222,-4.092048,0
-10.0182,-6.122278,0
-10.0142,3.945046,0
-10.0101,12.358956,0
-10.0064,6.906000,0
-10.0024,-4.457536,0
-9.9979,-6.752356,0
-9.9939,2.865703,0
-9.9899,11.152855,0
-9.9869,5.565215,0
-9.9827,-5.918464,0
-9.9787,-8.005290,0
-9.9747,2.081509,0
-9.9707,10.546294,0
-9.9657,4.982763,0
-9.9627,-6.399457,0
-9.9577,-8.163202,0
-9.9537,1.824027,0
-9.9497,10.099475,0
-9.9457,4.434929,0
-9.9417,-7.007115,0
-9.9379,-8.737229,0
-9.9329,1.426898,0
-9.9208,9.875388,0
-9.9198,4.346924,0
-9.9188,-7.108983,0
-9.9188,-8.866178,0
-9.9138,1.310283,0
-9.9108,9.515216,0
-9.9058,4.060631,0
-9.9028,-7.139005,0
-9.8982,-8.884565,0
-9.8942,1.236985,0
-9.8902,9.586109,0
-9.8862,4.052088,0
-9.8822,-7.101457,0
-9.8782,-8.662638,0
-9.8742,1.614853,0
-9.8702,9.902504,0
-9.8662,4.218516,0
-9.8622,-7.022941,0
-9.8581,-8.507409,0
-9.8538,1.925749,0
-9.8498,10.376768,0
-9.8458,4.689497,0
-9.8418,-6.677574,0
-9.8378,-8.192603,0
-9.8338,2.085178,0
-9.8298,10.387015,0
-9.8258,4.686533,0
-9.8228,-6.510398,0
-9.8185,-7.708774,0
-9.8145,2.465422,0
-9.8105,10.698601,1
-9.8055,4.598407,0
-9.8000,-6.883276,0
-9.7899,-8.406555,0
-9.7889,2.048264,0
-9.7889,10.305618,0
-9.7859,4.525063,0
-9.7819,-6.736704,0
-9.7779,-8.286675,0
-9.7739,1.824271,0
-9.7699,9.976266,0
-9.7659,4.295275,0
-9.7619,-6.965783,0
-9.7579,-8.576769,0
-9.7539,1.288862,0
-9.7489,8.947060,0
-9.7459,2.711234,0
-9.7419,-8.265339,0
-9.7379,-9.247138,0
-9.7339,1.227870,0
-9.7299,9.367380,0
-9.7254,3.210973,0
-9.7123,-7.858622,0
-9.7123,-8.687194,0
-9.7113,1.720629,0
-9.7103,9.579917,0
-9.7063,3.651593,0
-9.7023,-7.460578,0
-9.6978,-8.656693,0
-9.6938,1.773053,0
-9.6898,9.358035,0
-9.6858,2.901263,0
-9.6817,-8.458656,0
-9.6777,-9.644105,0
-9.6737,0.512556,0
-9.6697,8.074788,0
-9.6657,2.238156,0
-9.6617,-8.277482,0
-9.6577,-8.612617,0
-9.6533,2.143152,0
-9.6461,9.740058,0
-9.6411,3.385098,0
-9.6401,-7.692334,0
-9.6381,-8.497674,0
-9.6341,2.003810,0
-9.6301,9.495635,0
-9.6251,2.979162,0
-9.6221,-8.241312,0
-9.6177,-9.083685,0
-9.6136,1.615452,0
-9.6096,9.458628,0
-9.6056,3.268989,0
-9.6013,-8.115033,0
-9.5968,-9.224381,0
-9.5938,1.070012,0
-9.5898,8.754814,0
-9.5858,3.564073,0
-9.5818,-5.568650,0
-9.5778,-5.106593,0
-9.5738,5.675323,0
-9.5616,12.317141,1
-9.5606,4.532778,0
-9.5596,-7.573455,0
-9.5576,-8.901769,0
-9.5536,1.519788,0
-9.5496,8.785318,0
-9.5456,2.276131,0
-9.5416,-8.658704,0
-9.5376,-9.296348,0
-9.5336,1.370374,0
-9.5296,8.864524,0
-9.5256,2.513985,0
-9.5216,-8.181627,0
-9.5176,-8.404849,0
-9.5136,2.206291,0
-9.5096,8.989927,0
-9.5056,2.132871,0
-9.5016,-8.751122,0
-9.4980,-8.985970,0
-9.4941,1.826803,0
-9.4834,8.944259,0
-9.4824,2.440879,0
-9.4814,-8.371548,0
-9.4774,-8.551899,0
-9.4734,2.050514,0
-9.4694,8.936653,0
-9.4654,2.248464,0
-9.4614,-8.376599,0
-9.4574,-8.624864,0
-9.4534,1.841617,0
-9.4494,8.556506,0
-9.4454,1.645342,0
-9.4414,-8.901590,0
-9.4374,-8.349500,0
-9.4332,2.418561,0
-9.4292,8.815332,0
-9.4252,1.621338,0
-9.4212,-9.170768,0
-9.4132,-8.976245,0
-9.4092,2.073017,0
-9.4082,8.994722,0
-9.4052,2.331873,0
-9.4012,-8.010849,0
-9.3967,-7.674590,0
-9.3937,3.017204,0
-9.3897,9.437591,0
-9.3857,1.815700,0
-9.3817,-9.118588,0
-9.3777,-8.679789,0
-9.3737,2.512806,0
-9.3697,9.183527,0
-9.3652,2.062528,0
-9.3612,-8.238594,0
-9.3578,-7.476474,0
-9.3530,4.152654,0
-9.3495,11.284688,0
-9.3375,4.132484,0
-9.3365,-6.541311,0
-9.3365,-6.257940,0
-9.3335,4.922108,0
-9.3295,11.531737,0
-9.3255,4.266188,0
-9.3215,-6.099304,0
-9.3175,-5.498979,0
-9.3135,5.549389,0
-9.3095,11.969169,0
-9.3055,4.763422,0
-9.3015,-5.551494,0
-9.2973,-4.737189,0
-9.2933,6.512715,0
-9.2893,12.749195,1
-9.2853,5.034773,0
-9.2813,-5.886070,0
-9.2753,-5.349760,0
-9.2643,5.668952,0
-9.2643,11.869150,0
-9.2633,4.381317,0
-9.2613,-6.294708,0
-9.2573,-5.727297,0
-9.2533,5.292476,0
-9.2493,11.249227,0
-9.2450,3.634387,0
-9.2410,-7.102466,0
-9.2370,-6.724814,0
-9.2330,3.961954,0
-9.2290,9.960920,0
-9.2256,2.386964,0
-9.2217,-7.896280,0
-9.2167,-6.952634,0
-9.2136,4.431152,0
-9.2096,10.655609,0
-9.2056,3.015431,0
-9.2006,-7.450922,0
-9.1970,-6.451532,0
-9.1890,4.615823,0
-9.1820,10.687832,0
-9.1820,3.165956,0
-9.1810,-7.140349,0
-9.1770,-5.814667,0
-9.1727,5.467556,0
-9.1687,11.231516,0
-9.1654,3.298298,0
-9.1609,-7.027108,0
-9.1579,-6.051511,0
-9.1536,5.128369,0
-9.1486,10.858391,0
-9.1454,2.811208,0
-9.1409,-7.568259,0
-9.1377,-6.116004,0
-9.1334,5.258339,0
-9.1294,11.128735,0
-9.1254,3.222481,0
-9.1172,-7.119819,0
-9.1056,-6.042185,0
-9.1046,4.960455,0
-9.1046,10.726417,0
-9.1036,2.900263,0
-9.1006,-7.366908,0
-9.0975,-6.186160,0
-9.0925,4.940540,0
-9.0895,10.368616,0
-9.0855,2.211505,0
-9.0815,-8.076242,0
-9.0771,-6.605507,0
-9.0731,4.793279,0
-9.0691,10.268377,0
-9.0651,1.758359,0
-9.0611,-8.947844,0
-9.0571,-7.700172,0
-9.0531,3.543683,0
-9.0489,9.285578,0
-9.0449,1.477485,0
-9.0399,-8.694137,0
-9.0269,-7.436457,0
-9.0269,3.799480,0
-9.0259,9.305993,0
-9.0249,1.244342,0
-9.0209,-8.774331,0
-9.0169,-7.231561,0
-9.0129,3.938489,0
-9.0089,9.110146,0
-9.0049,0.779492,0
-9.0009,-9.411328,0
-8.9972,-7.749080,0
-8.9932,3.846044,0
-8.9892,9.286934,0
-8.9852,1.078890,0
-8.9812,-9.024624,0
-8.9772,-7.474872,0
-8.9732,3.640603,0
-8.9692,8.985591,0
-8.9648,0.858828,0
-8.9528,-8.932820,0
-8.9518,-7.195921,0
-8.9518,3.722731,0
-8.9488,8.273641,0
-8.9448,-0.477242,0
-8.9408,-10.390197,0
-8.9368,-8.124197,0
-8.9328,3.790826,0
-8.9288,9.338960,1
-8.9248,1.254604,0
-8.9208,-8.842848,0
-8.9168,-7.303763,0
-8.9128,3.922172,0
-8.9088,8.741603,0
-8.9048,0.489305,0
-8.9008,-9.160897,0
-8.8962,-7.230983,0
-8.8932,4.176624,0
-8.8882,9.042795,0
-8.8752,0.636219,0
-8.8732,-9.209652,0
-8.8732,-7.361517,0
-8.8722,3.910986,0
-8.8682,8.603671,0
-8.8642,0.328214,0
-8.8592,-8.467900,0
-8.8562,-5.166072,0
-8.8522,7.395899,0
-8.8482,12.995168,1
-8.8442,4.077869,0
-8.8402,-6.831458,0
-8.8362,-6.078437,0
-8.8322,4.231732,0
-8.8282,8.302456,0
-8.8242,-0.527564,0
-8.8202,-10.379201,0
-8.8162,-7.856396,0
-8.8122,3.666660,0
-8.8082,8.351205,0
-8.8032,-0.410632,0
-8.8002,-10.098543,0
-8.7971,-7.946954,0
-8.7921,3.488126,0
-8.7881,7.967944,0
-8.7841,-0.592921,0
-8.7811,-10.321707,0
-8.7761,-8.047079,0
-8.7721,3.215065,0
-8.7681,7.824694,0
-8.7641,-0.504154,0
-8.7601,-9.797177,0
-8.7561,-7.344256,0
-8.7521,3.647482,0
-8.7481,7.772161,0
-8.7451,-1.087317,0
-8.7401,-10.652330,0
-8.7351,-8.004707,0
-8.7231,3.349790,0
-8.7161,7.592671,0
-8.7151,-1.239941,0
-8.7151,-10.752894,0
-8.7141,-8.249091,0
-8.7121,3.155499,0
-8.7081,7.552737,0
-8.7051,-1.332606,0
-8.7009,-11.011016,0
-8.6964,-8.401886,0
-8.6924,3.105310,0
-8.6881,7.353489,0
-8.6841,-1.226879,0
-8.6800,-10.130917,0
-8.6761,-7.237631,0
-8.6721,4.172842,0
-8.6681,7.839263,0
-8.6641,-1.383360,0
-8.6601,-10.742700,0
-8.6561,-7.770655,0
-8.6521,3.862160,0
-8.6481,7.790600,0
-8.6441,-1.177234,0
-8.6400,-10.315846,0
-8.6360,-6.873712,0
-8.6320,5.039626,0
-8.6287,8.938243,0
-8.6237,-0.157615,0
-8.6206,-9.248900,0
-8.6166,-5.720267,0
-8.6126,6.492054,0
-8.6083,10.434718,0
-8.6040,1.388436,0
-8.6010,-7.788755,0
-8.5961,-4.767184,0
-8.5921,7.056652,0
-8.5830,10.832095,0
-8.5435,1.688793,0
-8.5403,-7.188109,0
-8.5378,-3.768936,0
-8.5360,7.912378,0
-8.5360,11.370120,0
-8.5340,1.791930,0
-8.5330,-7.472079,0
-8.5320,-3.908162,0
-8.5320,7.722110,0
-8.5310,11.175395,0
-8.5310,1.724553,0
-8.5310,-7.925911,0
-8.5300,-4.859055,0
-8.5300,6.806105,0
-8.5280,10.490410,0
-8.5240,0.959177,0
-8.5200,-8.655352,0
-8.5160,-5.856376,0
-8.5120,5.404607,0
-8.5090,8.740552,0
-8.5036,-0.821578,0
-8.4999,-10.005652,0
-8.4959,-6.552689,0
-8.4919,4.971333,0
-8.4879,8.024483,1
-8.4839,-1.543005,0
-8.4805,-10.649574,0
-8.4761,-7.026465,0
-8.4720,4.606237,0
-8.4676,7.816991,0
-8.4646,-1.822025,0
-8.4606,-11.043739,0
-8.4511,-7.465834,0
-8.4147,4.247596,0
-8.4147,7.450586,0
-8.4136,-2.001142,0
-8.4126,-11.258043,0
-8.4126,-7.952913,0
-8.4113,3.470809,0
-8.4093,6.710042,0
-8.4083,-2.636166,0
-8.4073,-11.400466,0
-8.4073,-7.644316,0
-8.4063,3.869930,0
-8.4053,6.761744,0
-8.4043,-2.709176,0
-8.4003,-11.453667,0
-8.3960,-7.492639,0
-8.3920,4.205314,0
-8.3882,7.042803,0
-8.3832,-2.705729,0
-8.3802,-11.673104,0
-8.3762,-7.889918,0
-8.3722,3.894130,0
-8.3682,6.716495,0
-8.3642,-3.152824,0
-8.3602,-12.042308,0
-8.3562,-8.202096,0
-8.3520,3.406269,0
-8.3480,6.303158,0
-8.3440,-3.289207,0
-8.3400,-11.764197,0
-8.3360,-7.838770,0
-8.3320,3.865611,0
-8.3280,6.800839,0
-8.3210,-2.828855,0
-8.2701,-11.131758,0
-8.2681,-6.652461,0
-8.2671,5.304772,0
-8.2661,8.040543,0
-8.2661,-1.808728,0
-8.2651,-10.563534,0
-8.2641,-6.567833,0
-8.2641,5.240551,0
-8.2631,7.946920,0
-8.2631,-1.818528,0
-8.2621,-10.259936,0
-8.2611,-5.955090,0
-8.2601,5.885879,0
-8.2601,8.483470,0
-8.2591,-1.336000,0
-8.2581,-9.803920,0
-8.2561,-5.547891,0
-8.2517,6.155696,0
-8.2482,8.514513,0
-8.2442,-1.291356,0
-8.2392,-9.414840,0
-8.2356,-4.669724,0
-8.2316,7.081876,0
-8.2276,9.290337,0
-8.2236,-1.044982,0
-8.2193,-9.520378,0
-8.2153,-4.664992,0
-8.2113,7.262885,0
-8.2073,9.230912,0
-8.2036,-1.303120,0
-8.2001,-9.892600,0
-8.1881,-5.000108,0
-8.1666,7.241910,0
-8.1489,9.906761,0
-8.1469,0.113936,0
-8.1469,-8.399931,0
-8.1439,-3.995604,0
-8.1409,7.602709,0
-8.1379,9.489312,0
-8.1339,-0.753586,0
-8.1319,-8.767158,0
-8.1289,-3.804425,0
-8.1269,8.220040,0
-8.1239,10.186443,0
-8.1219,-0.311858,0
-8.1199,-8.925120,0
-8.1179,-4.153138,0
-8.1158,7.893222,0
-8.1137,9.940241,0
-8.1117,-0.594949,0
-8.1117,-9.108169,0
-8.1107,-3.808092,0
-8.1107,8.984193,0
-8.1077,12.303392,1
-8.1037,3.067491,0
-8.0992,-5.058488,0
-8.0952,-1.300542,0
-8.0912,8.916295,0
-8.0872,9.482375,0
-8.0832,-1.488397,0
-8.0734,-9.758177,0
-8.0453,-4.649138,0
-8.0423,7.683777,0
-8.0403,9.586602,0
-8.0363,-1.023906,0
-8.0343,-9.471134,0
-8.0303,-4.428528,0
-8.0283,7.245329,0
-8.0263,8.901857,0
-8.0243,-1.364128,0
-8.0213,-9.245371,0
-8.0193,-4.290404,0
-8.0173,7.415279,0
-8.0163,9.351683,0
-8.0153,-1.131963,0
-8.0153,-9.219691,0
-8.0143,-4.023086,0
-8.0113,7.741112,0
-8.0073,9.121580,0
-8.0033,-1.364117,0
-8.0003,-9.242812,0
-7.9958,-3.966999,0
-7.9918,7.726831,0
-7.9878,9.209991,0
-7.9838,-1.123349,0
-7.9798,-9.140525,0
-7.9758,-4.088559,0
-7.9648,7.432056,0
-7.9365,8.724725,0
-7.9335,-1.808645,0
-7.9315,-9.455741,0
-7.9295,-3.797489,0
-7.9262,8.170947,0
-7.9235,9.469235,0
-7.9211,-1.381641,0
-7.9177,-9.502404,0
-7.9151,-4.436558,0
-7.9121,7.162261,0
-7.9121,8.472074,0
-7.9111,-1.816632,0
-7.9101,-9.276539,0
-7.9101,-4.006204,0
-7.9091,7.415992,0
-7.9079,8.397829,0
-7.9028,-2.222575,0
-7.8988,-9.560860,0
-7.8955,-3.816802,0
-7.8921,7.928513,0
-7.8877,8.906131,0
-7.8837,-1.637002,0
-7.8795,-8.764436,0
-7.8755,-2.719819,0
-7.8715,9.168742,0
-7.8675,9.962387,1
-7.8635,-0.880836,0
-7.8590,-7.986240,0
-7.8490,-1.739400,0
-7.8079,10.317091,0
-7.8039,11.309599,1
-7.8039,0.566540,0
-7.8029,-6.812162,0
-7.8019,-1.000065,0
-7.8009,10.494960,0
-7.7999,11.156755,0
-7.7989,0.509455,0
-7.7989,-6.856477,0
-7.7977,-0.928610,0
-7.7977,10.685428,0
-7.7967,11.092042,0
-7.7967,-0.029214,0
-7.7957,-7.468600,0
-7.7937,-1.750606,0
-7.7907,9.592658,0
-7.7867,9.904618,0
-7.7827,-1.038125,0
-7.7787,-8.337661,0
-7.7747,-2.159974,0
-7.7707,9.514358,0
-7.7667,9.894800,0
-7.7627,-1.251982,0
-7.7587,-8.903471,0
-7.7547,-3.091612,0
-7.7507,8.297039,0
-7.7467,8.601911,0
-7.7427,-2.292292,0
-7.7393,-9.543405,0
-7.7353,-3.532700,0
-7.7313,8.233312,0
-7.7273,8.818251,0
-7.7193,-1.751409,0
-7.7091,-8.684778,0
-7.7091,-2.541414,0
-7.7081,8.717693,0
-7.6886,8.983179,0
-7.6866,-1.733318,0
-7.6836,-8.795837,0
-7.6816,-2.807436,0
-7.6796,8.819501,0
-7.6786,9.072858,0
-7.6776,-1.835117,0
-7.6776,-8.599158,0
-7.6756,-2.321205,0
-7.6706,9.017370,0
-7.6666,8.996166,0
-7.6626,-1.858942,0
-7.6586,-8.686821,0
-7.6546,-2.407459,0
-7.6506,8.942500,0
-7.6466,8.757297,0
-7.6426,-2.388287,0
-7.6386,-9.161326,0
-7.6346,-2.664694,0
-7.6306,8.835021,0
-7.6266,8.828104,0
-7.6236,-2.037816,0
-7.6186,-9.037127,0
-7.6154,-3.060185,0
-7.6105,8.162453,0
-7.6075,8.238673,0
-7.6030,-2.489562,0
-7.5951,-8.899619,0
-7.5626,-2.810137,0
-7.5616,7.962051,0
-7.5616,7.709447,0
-7.5596,-2.929102,0
-7.5576,-9.295159,0
-7.5546,-2.947720,0
-7.5506,8.316381,0
-7.5476,8.098447,0
-7.5456,-2.823338,0
-7.5426,-9.259851,0
-7.5406,-2.484078,0
-7.5376,8.720120,0
-7.5346,7.910949,0
-7.5306,-3.536023,0
-7.5286,-10.283023,0
-7.5262,-4.011187,0
-7.5232,7.063744,0
-7.5212,7.364915,0
-7.5202,-2.865791,0
-7.5192,-8.894991,0
-7.5142,-2.109054,0
-7.5102,8.711518,0
-7.5072,7.864747,0
-7.5022,-3.199632,0
-7.4987,-9.532302,0
-7.4947,-2.763804,0
-7.4907,8.396584,0
-7.4869,7.798312,0
-7.4824,-3.342599,0
-7.4784,-9.598144,0
-7.4744,-2.937710,0
-7.4629,7.828330,0
-7.4302,7.056308,0
-7.4122,-3.773629,0
-7.4092,-10.171378,0
-7.4067,-3.175531,0
-7.4037,8.631026,0
-7.4007,9.235042,0
-7.3997,-0.310045,0
-7.3997,-5.443033,0
-7.3987,1.408971,0
-7.3962,11.187261,1
-7.3952,8.834310,0
-7.3924,-3.110169,0
-7.3891,-9.505079,0
-7.3863,-2.666603,0
-7.3853,8.312366,0
-7.3833,7.362470,0
-7.3811,-3.567008,0
-7.3791,-9.679353,0
-7.3781,-2.763128,0
-7.3781,8.380440,0
-7.3781,7.645071,0
-7.3771,-3.012547,0
-7.3761,-8.870143,0
-7.3741,-2.022658,0
-7.3711,8.631415,0
-7.3661,7.439630,0
-7.3621,-3.382373,0
-7.3587,-8.913147,0
-7.3547,-1.902754,0
-7.3507,8.964115,0
-7.3467,7.611425,0
-7.3427,-3.512773,0
-7.3387,-9.070506,0
-7.3347,-1.926316,0
-7.3267,8.634166,0
-7.2792,7.274393,0
-7.2782,-3.786663,0
-7.2772,-9.457400,0
-7.2762,-2.139149,0
-7.2762,8.822330,0
-7.2752,7.609668,0
-7.2732,-3.412877,0
-7.2702,-9.110555,0
-7.2682,-2.250269,0
-7.2662,8.114987,0
-7.2632,6.599295,0
-7.2612,-4.518043,0
-7.2582,-9.996855,0
-7.2562,-2.677816,0
-7.2532,8.036252,0
-7.2502,6.749915,0
-7.2482,-4.071229,0
-7.2462,-9.476262,0
-7.2439,-2.137283,0
-7.2420,8.459604,0
-7.2385,6.800219,0
-7.2361,-4.046696,0
-7.2331,-9.109240,0
-7.2301,-1.462336,0
-7.2281,9.195357,0
-7.2251,7.515444,0
-7.2221,-3.447900,0
-7.2181,-8.653902,0
-7.2146,-0.966119,0
-7.2106,10.085919,0
-7.2066,8.673260,0
-7.2024,-2.154294,0
-7.1979,-7.249612,0
-7.1943,0.394228,0
-7.1903,11.095061,0
-7.1841,9.389572,0
-7.1464,-1.511447,0
-7.1444,-6.189242,0
-7.1414,1.621913,0
-7.1384,11.929681,1
-7.1364,9.687367,0
-7.1344,-1.541848,0
-7.1334,-6.404395,0
-7.1334,1.313006,0
-7.1324,11.626680,0
-7.1294,9.454193,0
-7.1262,-1.871409,0
-7.1232,-6.997754,0
-7.1209,0.553437,0
-7.1189,10.753100,0
-7.1169,8.342991,0
-7.1159,-2.980610,0
-7.1159,-7.846423,0
-7.1139,0.154062,0
-7.1099,10.513823,0
-7.1059,8.042944,0
-7.1019,-3.467880,0
-7.0984,-8.514051,0
-7.0944,-0.644411,0
-7.0904,9.623829,1
-7.0864,7.203957,0
-7.0824,-4.282576,0
-7.0784,-9.090325,0
-7.0744,-1.349683,0
-7.0704,9.071067,0
-7.0664,6.813620,0
-7.0598,-4.327974,0
-7.0059,-9.012674,0
-7.0039,-1.154078,0
-7.0009,8.855157,0
-6.9999,6.105491,0
-6.9984,-5.273563,0
-6.9984,-9.581940,0
-6.9974,-1.152886,0
-6.9974,9.149731,0
-6.9964,6.496033,0
-6.9964,-4.981860,0
-6.9954,-9.786010,0
-6.9944,-1.740204,0
-6.9944,8.588410,0
-6.9934,6.038881,0
-6.9924,-5.353641,0
-6.9904,-9.821441,0
-6.9884,-1.394253,0
-6.9844,8.927094,0
-6.9814,6.101027,0
-6.9784,-5.405941,0
-6.9754,-9.569045,0
-6.9724,-1.253732,0
-6.9704,8.868279,0
-6.9664,5.987889,0
-6.9624,-5.497056,0
-6.9581,-9.872307,0
-6.9541,-1.409087,0
-6.9501,8.934237,0
-6.9461,6.323932,0
-6.9421,-4.870312,0
-6.9381,-9.058296,0
-6.9341,-0.847656,0
-6.9301,9.165197,0
-6.9211,6.188093,0
-6.9057,-5.315406,0
-6.9047,-9.463080,0
-6.9037,-0.920656,0
-6.9027,8.983767,0
-6.9027,5.911156,0
-6.8832,-5.581669,0
-6.8817,-9.779205,0
-6.8807,-1.311156,0
-6.8797,8.615356,0
-6.8797,5.563027,0
-6.8787,-5.736920,0
-6.8777,-9.785973,0
-6.8737,-1.021527,0
-6.8703,9.129567,0
-6.8653,5.902386,0
-6.8620,-5.698909,0
-6.8580,-9.719635,0
-6.8540,-0.900492,0
-6.8500,9.253629,0
-6.8460,5.921344,0
-6.8420,-5.594986,0
-6.8380,-9.551862,0
-6.8340,-0.710907,0
-6.8300,9.328499,0
-6.8260,6.044351,0
-6.8220,-5.495804,0
-6.8180,-10.089975,0
-6.8140,-2.238050,0
-6.8100,7.246142,0
-6.8060,4.245284,0
-6.7993,-6.477148,0
-6.7387,-9.448581,0
-6.7357,-0.146077,0
-6.7337,9.920536,0
-6.7317,6.368804,0
-6.7297,-5.333751,0
-6.7297,-9.274777,0
-6.7277,-0.669296,0
-6.7247,8.987388,0
-6.7237,5.578858,0
-6.7237,-5.609800,0
-6.7227,-9.305553,0
-6.7227,-0.537845,0
-6.7217,9.010630,0
-6.7217,5.149649,0
-6.7207,-6.426116,0
-6.7197,-10.003463,0
-6.7167,-1.042481,0
-6.7147,8.783647,0
-6.7117,5.900343,0
-6.7107,-3.949635,0
-6.7097,-6.045293,0
-6.7067,3.581473,0
-6.7052,12.671310,1
-6.7052,7.663200,0
-6.7019,-5.150303,0
-6.6979,-9.775041,0
-6.6939,-1.916592,0
-6.6897,7.177881,0
-6.6853,3.162720,0
-6.6813,-7.752597,0
-6.6773,-10.538084,0
-6.6733,-1.318184,0
-6.6693,8.243634,0
-6.6643,4.113312,0
-6.6460,-7.255672,0
-6.6425,-10.330651,0
-6.6425,-1.260330,0
-6.6415,8.062301,0
-6.6405,4.066907,0
-6.6405,-7.270307,0
-6.6375,-10.624249,0
-6.6345,-1.328021,0
-6.6297,8.318496,0
-6.6254,4.381158,0
-6.6210,-6.549496,0
-6.6176,-9.372895,0
-6.6136,-0.219007,0
-6.6096,8.762180,0
-6.6056,4.241582,0
-6.6016,-7.222649,0
-6.5974,-10.153030,0
-6.5934,-0.803620,0
-6.5894,8.255477,0
-6.5851,3.815888,0
-6.5811,-7.341019,0
-6.5771,-10.068734,0
-6.5731,-0.915569,0
-6.5691,7.751201,0
-6.5590,3.277585,0
-6.5328,-7.981610,0
-6.5288,-10.596050,0
-6.5258,-1.126274,0
-6.5238,8.169757,0
-6.5238,3.897389,0
-6.5228,-7.221725,0
-6.5228,-9.791698,0
-6.5218,-0.310445,0
-6.5208,8.476820,0
-6.5208,3.470760,0
-6.5173,-7.857456,0
-6.5152,-10.585509,0
-6.5128,-1.116187,0
-6.5090,8.083492,0
-6.5050,3.657610,0
-6.5010,-7.410868,0
-6.4975,-9.929264,0
-6.4935,-0.239294,0
-6.4895,8.910850,0
-6.4855,4.609053,0
-6.4815,-6.390407,0
-6.4775,-8.390847,0
-6.4735,1.600369,0
-6.4695,10.580045,1
-6.4655,5.951348,0
-6.4615,-4.848338,0
-6.4513,-7.057129,0
-6.4399,2.456669,0
-6.4145,11.197108,0
-6.4135,6.570643,0
-6.4135,-4.420821,0
-6.4124,-6.702454,0
-6.4104,2.777097,0
-6.4074,11.374860,1
-6.4063,6.286218,0
-6.4054,-5.104321,0
-6.4054,-7.418076,0
-6.4044,2.277546,0
-6.4044,11.008684,0
-6.4034,6.015907,0
-6.4014,-5.335739,0
-6.3973,-8.044067,0
-6.3928,1.166473,0
-6.3888,9.622850,0
-6.3848,4.402355,0
-6.3808,-6.753916,0
-6.3768,-8.998222,0
-6.3728,0.403658,0
-6.3688,8.755177,0
-6.3651,3.472512,0
-6.3604,-7.930098,0
-6.3574,-9.627497,0
-6.3534,0.470763,0
-6.3494,8.852971,0
-6.3454,3.671712,0
-6.3414,-7.452370,0
-6.3374,-9.462180,0
-6.3294,0.393212,0
-6.2804,8.799203,0
-6.2763,3.580360,0
-6.2732,-7.523800,0
-6.2702,-9.385333,0
-6.2672,0.523422,0
-6.2640,8.896004,0
-6.2620,3.620822,0
-6.2590,-7.435640,0
-6.2560,-9.243716,0
-6.2540,0.667022,0
-6.2510,8.942155,0
-6.2490,3.839967,0
-6.2470,-6.958611,0
-6.2440,-8.610487,0
-6.2410,1.403933,0
-6.2400,9.784749,0
-6.2390,4.405950,0
-6.2390,-7.046934,0
-6.2380,-8.985594,0
-6.2380,0.798562,0
-6.2370,9.066463,0
-6.2370,3.635434,0
-6.2360,-7.513750,0
-6.2360,-9.216953,0
-6.2330,0.701428,0
-6.2290,8.889090,0
-6.2246,3.164157,0
-6.2206,-7.901287,0
-6.2174,-9.571322,0
-6.2068,0.425565,0
-6.1786,8.600046,0
-6.1706,3.215174,0
-6.1666,-7.632403,0
-6.1636,-8.939928,0
-6.1626,0.874240,0
-6.1626,8.951146,0
-6.1616,3.300598,0
-6.1606,-7.817161,0
-6.1586,-9.175304,0
-6.1557,0.665458,0
-6.1533,8.329379,0
-6.1513,2.790187,0
-6.1483,-7.947064,0
-6.1443,-9.121580,0
-6.1423,0.998981,0
-6.1403,8.827927,0
-6.1373,3.042753,0
-6.1343,-7.836922,0
-6.1320,-9.212682,0
-6.1290,1.066717,0
-6.1270,8.737066,0
-6.1250,2.686853,0
-6.1210,-8.233879,0
-6.1170,-9.129742,0
-6.1130,1.306236,0
-6.1090,9.036457,0
-6.1050,2.854165,0
-6.1010,-8.659206,0
-6.0971,-10.247573,0
-6.0931,-0.239561,0
-6.0891,7.645714,0
-6.0816,1.965367,0
-6.0207,-8.550040,0
-6.0177,-9.022531,0
-6.0147,1.630790,0
-6.0113,9.297272,0
-6.0081,2.904166,0
-6.0061,-8.434207,0
-6.0051,-9.650820,0
-6.0041,0.540789,0
-6.0031,8.346351,0
-6.0021,2.644247,0
-6.0001,-8.191677,0
-5.9969,-9.008111,0
-5.9936,1.485647,0
-5.9916,9.202150,0
-5.9886,3.103119,0
-5.9866,-8.081686,0
-5.9856,-9.169815,0
-5.9856,1.011467,0
-5.9836,9.013971,0
-5.9816,4.024482,0
-5.9796,-5.394042,0
-5.9774,-4.919894,0
-5.9764,5.885835,0
-5.9742,12.693947,1
-5.9708,5.217784,0
-5.9687,-7.163511,0
-5.9678,-8.937261,0
-5.9678,1.075186,0
-5.9658,8.458190,0
-5.9624,2.385252,0
-5.9591,-8.193111,0
-5.9561,-8.534090,0
-5.9521,1.959454,0
-5.9491,8.978345,0
-5.9401,2.244532,0
-5.9265,-8.556342,0
-5.9265,-8.881018,0
-5.9255,1.747544,0
-5.9255,9.092005,0
-5.8837,2.991346,0
-5.8826,-7.823297,0
-5.8826,-8.466161,0
-5.8816,1.935267,0
-5.8806,9.064263,0
-5.8806,2.533155,0
-5.8796,-8.392642,0
-5.8796,-8.755910,0
-5.8796,1.956714,0
-5.8796,9.121531,0
-5.8796,2.429300,0
-5.8782,-8.009525,0
-5.8762,-8.258521,0
-5.8722,2.132566,0
-5.8681,9.074618,0
-5.8641,2.246051,0
-5.8601,-8.615500,0
-5.8561,-8.618325,0
-5.8518,2.318534,0
-5.8485,9.471932,0
-5.8445,2.736481,0
-5.8405,-8.043266,0
-5.8362,-8.339870,0
-5.8322,2.181914,0
-5.8283,8.737948,0
-5.8242,1.674314,0
-5.8201,-8.803668,0
-5.8166,-8.543881,0
-5.8121,2.331922,0
-5.8081,8.827222,0
-5.8041,1.577600,0
-5.7998,-9.016510,0
-5.7963,-8.782388,0
-5.7929,2.297850,0
-5.7856,9.189640,0
-5.7434,2.215921,0
-5.7424,-8.246978,0
-5.7424,-7.641741,0
-5.7414,3.484058,0
-5.7404,10.233882,0
-5.7394,3.201474,0
-5.7374,-7.324922,0
-5.7344,-7.045752,0
-5.7324,3.974237,0
-5.7324,10.686961,0
-5.7293,3.618669,0
-5.7273,-6.751937,0
-5.7253,-6.056483,0
-5.7216,5.211690,0
-5.7196,11.759970,0
-5.7176,4.758333,0
-5.7166,-5.657990,0
-5.7166,-5.111690,0
-5.7126,5.896003,0
-5.7086,12.193688,1
-5.7041,4.816853,0
-5.7001,-5.966411,0
-5.6966,-5.600283,0
-5.6921,5.086990,0
-5.6881,11.070541,0
-5.6841,3.479055,0
-5.6781,-7.092603,0
-5.6437,-6.196778,0
-5.6407,4.824625,0
-5.6367,10.836200,0
-5.6334,2.903014,0
-5.6304,-7.919298,0
-5.6284,-7.369063,0
-5.6244,3.664095,0
-5.6214,9.865685,0
-5.6194,2.223345,0
-5.6164,-8.251717,0
-5.6144,-7.738815,0
-5.6111,3.297504,0
-5.6081,9.588091,0
-5.6071,2.030867,0
-5.6061,-8.611365,0
-5.6061,-7.710565,0
-5.6051,3.384764,0
-5.6051,9.295009,0
-5.6041,1.802021,0
-5.6001,-8.380009,0
-5.5956,-7.426483,0
-5.5916,3.837321,0
-5.5876,9.955244,0
-5.5836,2.313369,0
-5.5796,-8.242729,0
-5.5766,-7.320592,0
-5.5719,3.994671,0
-5.5549,9.964218,0
-5.5549,2.274617,0
-5.5155,-8.067457,0
-5.5145,-6.953227,0
-5.5115,4.527164,0
-5.5085,10.560831,1
-5.5065,2.822615,0
-5.5035,-7.668456,0
-5.5015,-6.991057,0
-5.4985,3.898429,0
-5.4975,9.799818,0
-5.4975,1.949574,0
-5.4975,-8.068991,0
-5.4963,-6.764767,0
-5.4953,4.502082,0
-5.4953,10.100800,0
-5.4943,1.862376,0
-5.4943,-8.542165,0
-5.4933,-7.231985,0
-5.4923,4.024544,0
-5.4879,9.618722,0
-5.4838,1.620901,0
-5.4799,-8.673897,0
-5.4754,-7.384044,0
-5.4714,3.946705,0
-5.4674,9.493235,0
-5.4634,1.547584,0
-5.4594,-8.602751,0
-5.4555,-7.357981,0
-5.4522,3.695475,0
-5.4482,8.910892,0
-5.4432,0.396691,0
-5.4402,-10.035712,0
-5.4359,-8.494281,0
-5.4289,2.982695,0
-5.4011,8.632950,0
-5.4000,1.027783,0
-5.4000,-8.661290,0
-5.3991,-6.871752,0
-5.3991,4.574407,0
-5.3991,9.874570,0
-5.3975,1.421235,0
-5.3945,-8.682681,0
-5.3915,-7.022131,0
-5.3905,4.485506,0
-5.3875,9.826741,0
-5.3835,1.626224,0
-5.3795,-8.399565,0
-5.3755,-6.618058,0
-5.3725,4.527026,0
-5.3672,9.404896,0
-5.3642,0.868889,0
-5.3592,-9.420219,0
-5.3552,-7.558833,0
-5.3518,4.886606,0
-5.3478,11.604989,1
-5.3438,4.678694,0
-5.3365,-4.581202,0
-5.3255,-3.137266,0
-5.3244,6.964673,0
-5.3244,10.259936,0
-5.3224,0.662116,0
-5.2976,-9.807382,0
-5.2946,-7.861404,0
-5.2916,3.719740,0
-5.2896,8.693108,0
-5.2866,0.207749,0
-5.2836,-9.504974,0
-5.2816,-7.157236,0
-5.2782,4.551023,0
-5.2745,9.414410,0
-5.2711,0.877205,0
-5.2671,-8.968423,0
-5.2641,-6.636682,0
-5.2621,4.864967,0
-5.2591,9.414168,0
-5.2561,0.878129,0
-5.2541,-8.847042,0
-5.2511,-6.611735,0
-5.2511,4.653107,0
-5.2471,9.100943,0
-5.2437,0.433305,0
-5.2397,-9.258662,0
-5.2357,-6.912124,0
-5.2317,4.596878,0
-5.2277,9.078750,0
-5.2237,0.228839,0
-5.2197,-9.636913,0
-5.2072,-6.663630,0
-5.1917,5.341975,0
-5.1907,9.617238,1
-5.1907,0.713382,0
-5.1897,-9.189223,0
-5.1887,-6.903377,0
-5.1877,4.379745,0
-5.1844,8.761216,0
-5.1804,-0.101991,0
-5.1784,-9.898910,0
-5.1744,-7.132972,0
-5.1714,4.720755,0
-5.1670,8.933563,0
-5.1630,-0.007974,0
-5.1595,-9.670977,0
-5.1555,-7.054819,0
-5.1515,4.746972,0
-5.1475,8.994526,0
-5.1435,0.102429,0
-5.1395,-8.995834,0
-5.1353,-5.957730,0
-5.1312,6.061778,0
-5.1272,10.541476,0
-5.1232,1.480154,0
-5.1192,-8.130163,0
-5.1152,-5.330253,0
-5.1112,6.468804,0
-5.1036,10.557380,0
-5.0751,1.829983,0
-5.0701,-7.023714,0
-5.0681,-3.398392,0
-5.0671,8.416305,0
-5.0671,12.387583,0
-5.0661,3.281413,0
-5.0651,-6.193984,0
-5.0651,-3.360727,0
-5.0641,8.404939,0
-5.0621,12.404354,0
-5.0591,3.209411,0
-5.0571,-6.181019,0
-5.0541,-3.093720,0
-5.0511,8.513462,0
-5.0471,11.839508,0
-5.0431,2.348912,0
-5.0391,-7.231132,0
-5.0351,-4.298539,0
-5.0311,7.349773,0
-5.0267,10.847005,0
-5.0237,1.227484,0
-5.0187,-8.297352,0
-5.0147,-5.045502,0
-5.0107,6.712732,0
-5.0067,10.259673,0
-5.0027,0.356754,0
-4.9987,-9.232296,0
-4.9912,-5.864865,0
-4.9832,6.178221,0
-4.9820,9.753685,0
-4.9820,0.176351,0
-4.9626,-9.084559,0
-4.9596,-5.595577,0
-4.9566,6.132796,0
-4.9546,9.568723,0
-4.9526,-0.120164,0
-4.9496,-9.541598,0
-4.9466,-5.887751,0
-4.9446,6.054080,0
-4.9406,9.446734,0
-4.9376,-0.257376,0
-4.9366,-9.474536,0
-4.9346,-5.663962,0
-4.9316,6.278332,0
-4.9276,9.405047,0
-4.9236,-0.413083,0
-4.9196,-9.649209,0
-4.9146,-5.935469,0
-4.9106,5.975863,0
-4.9076,9.266452,0
-4.9026,-0.417644,0
-4.8986,-9.624360,0
-4.8953,-5.972385,0
-4.8913,5.973537,0
-4.8813,9.253402,0
-4.8507,-0.711995,0
-4.8467,-9.912898,0
-4.8447,-6.154003,0
-4.8417,5.922748,0
-4.8397,9.188737,0
-4.8367,-0.681086,0
-4.8347,-9.969431,0
-4.8327,-5.973465,0
-4.8297,5.987330,0
-4.8277,9.003576,0
-4.8237,-0.861951,0
-4.8217,-9.878577,0
-4.8197,-5.843255,0
-4.8197,6.175012,0
-4.8187,9.117459,1
-4.8177,-0.703832,0
-4.8177,-9.831849,0
-4.8147,-5.995654,0
-4.8117,5.963401,0
-4.8064,8.965899,0
-4.8034,-1.048356,0
-4.7984,-10.024314,0
-4.7949,-6.236988,0
-4.7909,5.748451,0
-4.7865,8.827865,0
-4.7825,-1.210846,0
-4.7785,-10.051882,0
-4.7745,-5.762419,0
-4.7705,6.250843,0
-4.7665,8.944979,0
-4.7555,-1.256438,0
-4.7355,-10.269619,0
-4.7315,-6.022087,0
-4.7295,5.965436,0
-4.7265,8.571083,0
-4.7235,-1.755921,0
-4.7215,-11.199643,0
-4.7195,-7.121314,0
-4.7165,4.720334,0
-4.7132,7.425947,0
-4.7104,-2.222682,0
-4.7068,-10.613762,0
-4.7047,-6.073488,0
-4.7017,5.992189,0
-4.6997,8.664568,0
-4.6971,-1.097968,0
-4.6959,-9.630983,0
-4.6949,-5.428090,0
-4.6909,6.136736,0
-4.6869,8.143232,0
-4.6829,-1.945749,0
-4.6789,-10.370781,0
-4.6749,-5.738205,0
-4.6705,6.138802,0
-4.6670,8.368262,0
-4.6630,-1.823005,0
-4.6586,-10.363819,0
-4.6546,-5.596237,0
-4.6448,6.341865,0
-4.6146,8.930561,0
-4.5927,-0.129887,0
-4.5894,-7.287371,0
-4.5870,-1.870247,0
-4.5850,10.060071,0
-4.5839,11.460560,1
-4.5839,0.105096,0
-4.5829,-9.504633,0
-4.5819,-5.565670,0
-4.5819,5.990088,0
-4.5809,8.005879,0
-4.5799,-2.147214,0
-4.5789,-10.311401,0
-4.5789,-5.366063,0
-4.5779,6.597218,0
-4.5769,8.281292,0
-4.5739,-2.124534,0
-4.5719,-10.166741,0
-4.5689,-5.168567,0
-4.5658,6.849091,0
-4.5629,8.567950,0
-4.5609,-1.923112,0
-4.5589,-10.136409,0
-4.5549,-5.101203,0
-4.5509,6.696288,0
-4.5466,8.304040,0
-4.5423,-2.411288,0
-4.5383,-10.513400,0
-4.5343,-5.259750,0
-4.5313,6.790835,0
-4.5268,8.731022,0
-4.5226,-1.644614,0
-4.5186,-9.533732,0
-4.5146,-4.552378,0
-4.5103,7.026037,0
-4.4606,8.718425,0
-4.4596,-1.654603,0
-4.4586,-9.812301,0
-4.4586,-4.760922,0
-4.4566,7.084368,0
-4.4556,8.643199,0
-4.4546,-1.859377,0
-4.4546,-9.689604,0
-4.4536,-4.478821,0
-4.4536,7.068390,0
-4.4523,8.188759,0
-4.4513,-2.773354,0
-4.4503,-10.651235,0
-4.4493,-4.592005,0
-4.4493,7.847176,0
-4.4463,9.636469,0
-4.4423,-0.779802,0
-4.4383,-8.672591,0
-4.4343,-3.541949,0
-4.4303,8.081093,0
-4.4263,9.105911,0
-4.4223,-1.649679,0
-4.4183,-9.243783,0
-4.4143,-3.524036,0
-4.4103,8.313109,0
-4.4063,9.511161,0
-4.4023,-1.113336,0
-4.3983,-8.468218,0
-4.3948,-2.366483,0
-4.3908,9.684851,0
-4.3862,10.630891,0
-4.3822,-0.081436,0
-4.3782,-7.495147,0
-4.3742,-1.676143,0
-4.3680,10.484491,0
-4.3496,11.666584,1
-4.3476,0.979428,0
-4.3466,-6.722119,0
-4.3456,-1.168088,0
-4.3444,10.410327,0
-4.3424,11.206999,0
-4.3414,0.524348,0
-4.3384,-6.682058,0
-4.3341,-0.921451,0
-4.3301,10.483272,0
-4.3261,10.714813,0
-4.3221,-0.481192,0
-4.3181,-8.094891,0
-4.3141,-2.047372,0
-4.3105,9.964714,0
-4.3065,10.533425,0
-4.3025,-0.563565,0
-4.2985,-8.360298,0
-4.2946,-2.568726,0
-4.2906,8.950928,0
-4.2866,9.360353,0
-4.2823,-1.552452,0
-4.2783,-8.964890,0
-4.2743,-2.984404,0
-4.2703,8.785546,0
-4.2608,9.147395,0
-4.2498,-1.784149,0
-4.2418,-9.030699,0
-4.2388,-2.827164,0
-4.2358,8.877969,0
-4.2338,9.006531,0
-4.2338,-2.096934,0
-4.2328,-9.189513,0
-4.2328,-2.728585,0
-4.2298,9.148774,0
-4.2258,9.367641,0
-4.2218,-1.855151,0
-4.2178,-9.135738,0
-4.2138,-2.952687,0
-4.2103,8.903999,0
-4.2063,9.064964,0
-4.2013,-2.021318,0
-4.1983,-8.915664,0
-4.1941,-2.626632,0
-4.1901,8.913461,0
-4.1861,8.994444,0
-4.1821,-2.372253,0
-4.1781,-9.405874,0
-4.1741,-3.080572,0
-4.1701,8.572987,0
-4.1611,8.577458,0
-4.1431,-2.369587,0
-4.1401,-9.221095,0
-4.1381,-2.939092,0
-4.1351,8.507314,0
-4.1341,8.122536,0
-4.1311,-3.475316,0
-4.1281,-10.324862,0
-4.1261,-3.599479,0
-4.1221,8.228709,0
-4.1191,7.958289,0
-4.1161,-3.746378,0
-4.1151,-10.918282,0
-4.1137,-4.567688,0
-4.1097,7.092999,0
-4.1057,7.138693,0
-4.1019,-4.144646,0
-4.0979,-11.067692,0
-4.0933,-4.301776,0
-4.0903,7.522606,0
-4.0853,7.509478,0
-4.0821,-3.723421,0
-4.0781,-10.641704,0
-4.0741,-4.055546,0
-4.0701,7.469923,0
-4.0661,7.295171,0
-4.0621,-3.857908,0
-4.0581,-10.411723,0
-4.0541,-3.708807,0
-4.0439,7.716992,0
-4.0154,7.226822,0
-4.0022,-4.172936,0
-3.9992,-11.018676,0
-3.9963,-4.400409,0
-3.9942,6.814788,0
-3.9913,6.441691,0
-3.9882,-4.671034,0
-3.9863,-10.904368,0
-3.9842,-3.629364,0
-3.9822,7.948070,0
-3.9792,7.473749,0
-3.9763,-3.741076,0
-3.9732,-10.343970,0
-3.9713,-3.741609,0
-3.9684,7.712376,0
-3.9664,7.235678,0
-3.9639,-3.934331,0
-3.9609,-10.282092,0
-3.9579,-3.296448,0
-3.9559,7.991665,0
-3.9539,7.146864,0
-3.9509,-4.287507,0
-3.9489,-10.549223,0
-3.9469,-3.433290,0
-3.9449,8.032653,0
-3.9419,7.497316,0
-3.9399,-3.153294,0
-3.9379,-8.098328,0
-3.9339,0.298755,0
-3.9299,12.187339,1
-3.9219,11.135716,0
-3.9094,-0.950908,0
-3.9094,-8.247424,0
-3.9094,-2.211544,0
-3.9084,8.317579,0
-3.8914,6.867774,0
-3.8904,-4.475308,0
-3.8904,-10.165234,0
-3.8864,-2.801409,0
-3.8821,8.255957,0
-3.8791,7.098352,0
-3.8791,-4.428056,0
-3.8781,-10.435356,0
-3.8731,-2.925626,0
-3.8701,8.795859,0
-3.8659,7.953251,0
-3.8619,-3.567151,0
-3.8579,-9.872194,0
-3.8539,-2.541520,0
-3.8499,8.690531,0
-3.8464,7.306084,0
-3.8420,-4.295205,0
-3.8377,-10.080039,0
-3.8337,-2.344359,0
-3.8297,8.855368,0
-3.8257,7.301473,0
-3.8217,-4.163662,0
-3.8147,-9.916378,0
-3.8007,-2.423173,0
-3.7997,8.699728,0
-3.7987,7.066699,0
-3.7827,-4.500024,0
-3.7668,-10.236659,0
-3.7638,-2.709336,0
-3.7608,8.470230,0
-3.7588,6.894676,0
-3.7554,-4.786062,0
-3.7524,-10.675787,0
-3.7490,-3.186876,0
-3.7466,7.872268,0
-3.7446,6.454666,0
-3.7426,-4.974590,0
-3.7396,-10.468138,0
-3.7366,-2.634099,0
-3.7336,8.378901,0
-3.7316,6.323323,0
-3.7286,-5.294255,0
-3.7266,-10.541236,0
-3.7235,-2.247420,0
-3.7215,8.983151,0
-3.7195,7.135877,0
-3.7165,-4.515325,0
-3.7135,-9.931032,0
-3.7115,-1.839856,0
-3.7092,9.416061,0
-3.7052,7.916797,0
-3.7013,-3.321452,0
-3.6969,-8.510234,0
-3.6936,-0.572637,0
-3.6896,10.588213,0
-3.6856,8.780663,0
-3.6776,-2.638598,0
-3.6443,-7.705079,0
-3.6433,0.618737,0
-3.6423,11.528327,0
-3.6335,9.122607,0
-3.6315,-2.827870,0
-3.6315,-8.152194,0
-3.6305,0.244454,0
-3.6295,11.718846,0
-3.6285,9.459570,0
-3.6255,-2.495501,0
-3.6235,-7.821360,0
-3.6205,0.068381,0
-3.6165,10.778994,0
-3.6135,8.460066,0
-3.6125,-3.429001,0
-3.6115,-8.481069,0
-3.6105,-0.242584,0
-3.6095,10.137029,0
-3.6055,7.293566,0
-3.6015,-4.539058,0
-3.5975,-9.235257,0
-3.5935,-0.753865,0
-3.5895,9.924722,0
-3.5855,7.084295,0
-3.5807,-4.892379,0
-3.5773,-9.665881,0
-3.5733,-0.928071,0
-3.5688,9.996461,0
-3.5648,7.434575,0
-3.5615,-4.251403,0
-3.5571,-8.891257,0
-3.5531,-0.200749,0
-3.5491,10.320136,0
-3.5448,7.348176,0
-3.5408,-4.676875,0
-3.5298,-9.469237,0
-3.5288,-0.644635,0
-3.5288,10.342562,0
-3.5248,7.685046,0
-3.5208,-4.044010,0
-3.5168,-9.032984,0
-3.5128,-0.650289,0
-3.5088,10.032688,0
-3.5048,7.314316,0
-3.5008,-4.453096,0
-3.4968,-8.763718,0
-3.4933,0.084757,0
-3.4893,10.685148,0
-3.4853,7.526084,0
-3.4813,-4.577745,0
-3.4773,-9.110612,0
-3.4733,-0.194790,0
-3.4693,10.417713,0
-3.4653,7.494384,0
-3.4612,-4.236693,0
-3.4572,-8.743489,0
-3.4532,-0.279573,0
-3.4492,10.142747,0
-3.4452,7.317134,0
-3.4412,-4.413232,0
-3.4372,-8.620245,0
-3.4332,0.297715,0
-3.4292,10.546932,0
-3.4252,7.258031,0
-3.4212,-4.687193,0
-3.4171,-8.989799,0
-3.4131,-0.111245,0
-3.4091,10.008480,0
-3.4058,6.636488,0
-3.4008,-5.169666,0
-3.3968,-9.430940,0
-3.3862,-0.042400,0
-3.3862,10.714854,0
-3.3852,7.151045,0
-3.3812,-5.066903,0
-3.3772,-9.245859,0
-3.3727,-0.367343,0
-3.3687,9.794723,0
-3.3655,6.254910,0
-3.3605,-5.436917,0
-3.3572,-9.313089,0
-3.3530,0.027343,0
-3.3490,10.115661,0
-3.3450,6.309703,0
-3.3410,-5.807388,0
-3.3370,-10.025668,0
-3.3329,-0.763081,0
-3.3289,9.734298,0
-3.3249,6.142786,0
-3.3199,-5.676612,0
-3.3099,-9.493656,0
-3.3089,-0.615144,0
-3.3079,9.087043,0
-3.3049,4.843924,0
-3.3009,-7.020831,0
-3.2969,-10.534116,0
-3.2924,-0.680362,0
-3.2894,9.898351,0
-3.2844,6.215998,0
-3.2814,-5.642236,0
-3.2764,-9.412927,0
-3.2732,-0.060789,0
-3.2690,9.740312,0
-3.2650,5.543687,0
-3.2610,-6.237831,0
-3.2565,-9.703980,0
-3.2525,-0.353280,0
-3.2475,9.596906,0
-3.2300,5.771640,0
-3.2280,-5.841101,0
-3.2280,-9.265075,0
-3.2270,0.039658,0
-3.2270,9.664859,0
-3.2250,5.521091,0
-3.2206,-5.858311,0
-3.2166,-8.293355,0
-3.2126,2.501821,0
-3.2085,13.331788,1
-3.2053,9.415779,0
-3.2002,-3.138485,0
-3.1962,-7.569133,0
-3.1931,0.683839,0
-3.1891,9.425841,1
-3.1851,4.638171,0
-3.1811,-7.467417,0
-3.1761,-10.542061,0
-3.1726,-0.683579,0
-3.1666,9.286615,0
-3.1556,4.986810,0
-3.1546,-6.964664,0
-3.1536,-10.176874,0
-3.1526,-0.551309,0
-3.1482,9.074873,0
-3.1442,4.623332,0
-3.1402,-7.198368,0
-3.1362,-10.185980,0
-3.1322,-0.453496,0
-3.1282,9.092280,0
-3.1242,4.533278,0
-3.1202,-7.173608,0
-3.1162,-9.986716,0
-3.1122,-0.087672,0
-3.1082,9.063529,0
-3.1042,4.189141,0
-3.1001,-7.592167,0
-3.0961,-10.271018,0
-3.0916,-0.364216,0
-3.0885,8.989907,0
-3.0760,4.179991,0
-3.0760,-7.681818,0
-3.0760,-10.675940,0
-3.0730,-0.954718,0
-3.0690,8.452079,0
-3.0640,3.802653,0
-3.0610,-7.962548,0
-3.0567,-10.775237,0
-3.0527,-0.782634,0
-3.0487,8.512769,0
-3.0447,3.620004,0
-3.0410,-8.050878,0
-3.0359,-10.363978,0
-3.0319,0.009241,0
-3.0289,9.317057,0
-3.0241,4.189240,0
-3.0201,-7.712744,0
-3.0161,-10.405925,0
-3.0081,-0.402082,0
-3.0021,8.761049,0
-3.0021,3.748216,0
-3.0001,-7.853250,0
-2.9961,-9.936321,0
-2.9926,0.429355,0
-2.9886,9.807792,0
-2.9846,4.910388,0
-2.9806,-6.500350,0
-2.9761,-8.564480,0
-2.9721,1.865517,0
-2.9680,11.196197,0
-2.9640,6.160080,0
-2.9600,-5.441703,0
-2.9560,-7.797558,0
-2.9520,2.334218,0
-2.9480,11.616241,0
-2.9430,6.635889,0
-2.9323,-5.258386,0
-2.9303,-7.350434,0
-2.9293,3.122381,0
-2.9283,12.094304,1
-2.9243,6.519674,0
-2.9203,-5.385375,0
-2.9163,-7.490605,0
-2.9123,2.753760,0
-2.9083,11.688303,0
-2.9043,6.291201,0
-2.9003,-5.500827,0
-2.8963,-7.735599,0
-2.8928,2.300238,0
-2.8878,10.669828,0
-2.8848,4.933415,0
-2.8799,-6.885027,0
-2.8759,-8.890593,0
-2.8719,1.231950,0
-2.8679,9.908936,0
-2.8639,4.334366,0
-2.8549,-7.073415,0
-2.8479,-8.918661,0
-2.8479,1.375976,0
-2.8469,9.888700,0
-2.8439,4.127075,0
-2.8405,-7.609645,0
-2.8362,-9.383620,0
-2.8323,1.226998,0
-2.8277,9.806794,0
-2.8238,3.968044,0
-2.8198,-7.668587,0
-2.8158,-9.296921,0
-2.8118,1.521055,0
-2.8078,10.188805,0
-2.8038,4.314692,0
-2.7998,-7.412030,0
-2.7968,-8.973077,0
-2.7922,1.451333,0
-2.7862,10.001614,0
-2.7728,4.135274,0
-2.7718,-7.452136,0
-2.7718,-8.876241,0
-2.7708,1.702839,0
-2.7688,9.956883,0
-2.7643,3.901834,0
-2.7603,-7.905946,0
-2.7563,-9.553368,0
-2.7523,1.259508,0
-2.7480,9.930125,0
-2.7436,3.918238,0
-2.7406,-7.649577,0
-2.7366,-8.811398,0
-2.7316,2.087647,0
-2.7286,10.539366,0
-2.7236,4.428010,0
-2.7206,-7.261777,0
-2.7146,-8.802233,0
-2.7072,1.756793,0
-2.7024,9.534552,0
-2.7014,3.142233,0
-2.7004,-8.185031,0
-2.6964,-9.130111,0
-2.6919,1.592717,0
-2.6879,9.499833,0
-2.6839,3.093205,0
-2.6799,-8.240910,0
-2.6759,-9.406623,0
-2.6719,1.411846,0
-2.6679,9.587042,0
-2.6629,3.349981,0
-2.6599,-8.213585,0
-2.6559,-9.189489,0
-2.6519,1.553967,0
-2.6479,9.475144,0
-2.6439,2.996253,0
-2.6399,-8.773020,0
-2.6359,-9.813178,0
-2.6249,1.182380,0
-2.6239,9.206639,0
-2.6239,3.133654,0
-2.6199,-8.031802,0
-2.6159,-8.834989,0
-2.6119,2.113400,0
-2.6079,9.921787,0
-2.6039,3.164183,0
-2.5999,-8.453398,0
-2.5954,-9.075153,0
-2.5924,2.307935,0
-2.5874,10.241485,0
-2.5844,3.549602,0
-2.5794,-7.999429,0
-2.5764,-8.844465,0
-2.5714,1.868905,0
-2.5674,9.246035,0
-2.5634,2.041945,0
-2.5594,-9.667833,0
-2.5554,-10.136586,0
-2.5444,1.524128,0
-2.5434,9.795489,0
-2.5434,3.470362,0
-2.5394,-7.802177,0
-2.5354,-8.515865,0
-2.5314,2.572991,0
-2.5274,10.031400,0
-2.5234,2.988752,0
-2.5194,-8.291982,0
-2.5154,-8.544431,0
-2.5114,2.549448,0
-2.5074,10.011269,0
-2.5034,3.197025,0
-2.4994,-8.237378,0
-2.4954,-8.673586,0
-2.4919,2.795531,0
-2.4879,10.321081,0
-2.4829,3.277290,0
-2.4719,-7.747348,0
-2.4709,-7.575467,0
-2.4699,4.726593,0
-2.4679,13.283194,1
-2.4639,6.998709,0
-2.4599,-4.336777,0
-2.4559,-5.453229,0
-2.4519,4.258125,0
-2.4479,10.062361,0
-2.4439,2.163268,0
-2.4399,-9.172682,0
-2.4359,-8.984530,0
-2.4319,2.433341,0
-2.4279,9.655351,0
-2.4239,2.456095,0
-2.4199,-8.926610,0
-2.4159,-9.169412,0
-2.4109,1.997519,0
-2.3998,9.368748,0
-2.3988,2.428534,0
-2.3988,-8.401832,0
-2.3953,-8.265005,0
-2.3913,2.855960,0
-2.3873,9.676366,0
-2.3833,2.144952,0
-2.3793,-9.201062,0
-2.3753,-8.984625,0
-2.3713,2.612354,0
-2.3673,9.775165,0
-2.3633,2.481413,0
-2.3593,-8.520944,0
-2.3553,-8.204380,0
-2.3513,3.111416,0
-2.3473,9.807348,0
-2.3433,2.324331,0
-2.3393,-8.540825,0
-2.3343,-8.386316,0
-2.3223,2.727092,0
-2.3213,9.204795,0
-2.3213,1.650995,0
-2.3193,-8.870644,0
-2.3153,-7.839385,0
-2.3113,3.679838,0
-2.3073,10.329676,0
-2.3039,2.342214,0
-2.2990,-9.056327,0
-2.2952,-8.898054,0
-2.2912,2.331503,0
-2.2870,8.856805,0
-2.2830,1.266828,0
-2.2790,-9.626951,0
-2.2750,-8.909130,0
-2.2710,3.176677,0
-2.2670,9.946527,0
-2.2636,2.264786,0
-2.2596,-8.813462,0
-2.2546,-8.149107,0
-2.2426,3.359640,0
-2.2426,9.620796,0
-2.2416,1.972057,0
-2.2396,-8.169488,0
-2.2356,-6.678171,0
-2.2316,5.248065,0
-2.2276,11.620190,0
-2.2236,3.728556,0
-2.2196,-7.001729,0
-2.2156,-5.969783,0
-2.2116,5.707200,0
-2.2077,11.872137,0
-2.2037,3.945276,0
-2.1992,-6.643898,0
-2.1952,-5.434911,0
-2.1916,6.375349,0
-2.1876,12.617127,1
-2.1836,4.540713,0
-2.1796,-6.002244,0
-2.1756,-4.852586,0
-2.1646,6.490062,0
-2.1636,12.153683,0
-2.1636,3.805464,0
-2.1596,-7.048266,0
-2.1556,-5.886690,0
-2.1516,5.628366,0
-2.1476,11.248756,0
-2.1436,2.705131,0
-2.1396,-8.179534,0
-2.1356,-6.962964,0
-2.1306,4.517951,0
-2.1276,10.266504,0
-2.1236,1.924408,0
-2.1186,-8.762009,0
-2.1146,-7.514537,0
-2.1116,4.155789,0
-2.1076,9.948632,0
-2.1016,1.475641,0
-2.0911,-8.956584,0
-2.0911,-6.932546,0
-2.0901,5.067707,0
-2.0871,10.561250,0
-2.0831,1.725718,0
-2.0791,-9.030584,0
-2.0751,-7.361064,0
-2.0711,4.444542,0
-2.0671,9.939376,0
-2.0631,1.637355,0
-2.0591,-8.572716,0
-2.0551,-6.764817,0
-2.0511,5.123158,0
-2.0471,10.471705,0
-2.0431,1.861533,0
-2.0391,-8.579277,0
-2.0341,-6.632849,0
-2.0311,5.273402,0
-2.0201,10.819289,0
-2.0201,2.183086,0
-2.0191,-8.186279,0
-2.0151,-6.305113,0
-2.0111,5.559293,0
-2.0071,10.880073,1
-2.0031,2.215078,0
-1.9991,-8.171839,0
-1.9946,-6.357660,0
-1.9916,5.030482,0
-1.9873,9.859138,0
-1.9833,0.940496,0
-1.9793,-9.393688,0
-1.9753,-7.334080,0
-1.9713,4.672067,0
-1.9673,9.900527,0
-1.9633,1.140374,0
-1.9533,-9.268899,0
-1.9523,-7.125952,0
-1.9513,4.852542,0
-1.9473,10.038586,0
-1.9433,1.380330,0
-1.9393,-8.848821,0
-1.9343,-6.809498,0
-1.9313,4.960524,0
-1.9273,9.783877,0
-1.9233,0.992420,0
-1.9193,-9.109933,0
-1.9153,-6.782777,0
-1.9113,4.972382,0
-1.9073,9.566366,0
-1.9023,0.898126,0
-1.8993,-8.650882,0
-1.8948,-6.312991,0
-1.8903,5.381227,0
-1.8790,9.858444,0
-1.8770,0.806701,0
-1.8770,-9.111586,0
-1.8750,-6.473525,0
-1.8710,5.481011,0
-1.8670,10.051901,0
-1.8630,0.927355,0
-1.8590,-8.967594,0
-1.8550,-6.255724,0
-1.8510,5.586461,0
-1.8470,9.903178,0
-1.8430,0.619808,0
-1.8390,-9.523976,0
-1.8350,-7.389636,0
-1.8310,4.452837,0
-1.8270,9.127153,0
-1.8230,0.446810,0
-1.8190,-8.674693,0
-1.8080,-5.676670,0
-1.8070,6.157735,0
-1.8070,10.030771,0
-1.8030,0.267180,0
-1.7990,-9.509777,0
-1.7945,-6.356028,0
-1.7905,5.561703,0
-1.7870,9.711039,0
-1.7830,0.405177,0
-1.7790,-9.384845,0
-1.7750,-6.414492,0
-1.7710,5.651701,0
-1.7670,9.869723,0
-1.7630,0.474430,0
-1.7590,-9.559455,0
-1.7550,-6.844364,0
-1.7500,5.294798,0
-1.7470,10.348048,0
-1.7410,2.678366,0
-1.7280,-5.767487,0
-1.7280,-2.492534,0
-1.7280,8.456112,0
-1.7270,10.909129,1
-1.7230,0.277458,0
-1.7190,-9.877728,0
-1.7150,-6.789346,0
-1.7110,5.133735,0
-1.7070,8.826650,0
-1.7030,-0.829306,0
-1.6985,-10.482201,0
-1.6950,-7.147657,0
-1.6900,4.942662,0
-1.6870,8.693020,0
-1.6820,-0.910392,0
-1.6790,-10.233778,0
-1.6750,-6.679855,0
-1.6705,5.176041,0
-1.6665,8.510551,0
-1.6625,-0.996283,0
-1.6585,-10.006216,0
-1.6535,-6.336360,0
-1.6475,5.473980,0
-1.6425,8.662711,0
-1.6415,-0.925658,0
-1.6385,-10.159282,0
-1.6335,-6.596232,0
-1.6295,5.469836,0
-1.6265,8.822563,1
-1.6225,-0.926744,0
-1.6185,-10.089599,0
-1.6145,-6.482126,0
-1.6105,5.249447,0
-1.6065,8.461325,0
-1.6025,-1.217332,0
-1.5985,-10.314330,0
-1.5940,-6.526018,0
-1.5910,5.524836,0
-1.5860,8.726032,0
-1.5820,-1.060644,0
-1.5710,-10.213493,0
-1.5700,-6.390675,0
-1.5700,5.557415,0
-1.5660,8.780918,0
-1.5620,-1.175312,0
-1.5587,-10.399510,0
-1.5547,-6.626718,0
-1.5507,5.390311,0
-1.5467,8.174834,0
-1.5427,-1.778330,0
-1.5387,-10.415935,0
-1.5347,-6.290374,0
-1.5307,5.670663,0
-1.5267,8.490149,0
-1.5227,-1.338036,0
-1.5187,-9.940835,0
-1.5137,-5.563108,0
-1.5107,6.568099,0
-1.5067,9.472783,0
-1.4942,-0.388687,0
-1.4932,-9.056980,0
-1.4932,-4.862484,0
-1.4902,7.274837,0
-1.4862,10.090492,0
-1.4822,0.208112,0
-1.4782,-8.191623,0
-1.4742,-3.773097,0
-1.4702,8.414036,0
-1.4662,11.363569,0
-1.4622,1.426980,0
-1.4582,-7.185294,0
-1.4542,-2.945848,0
-1.4502,8.522409,0
-1.4462,10.720977,0
-1.4422,0.441893,0
-1.4382,-8.278237,0
-1.4342,-3.916216,0
-1.4302,7.706539,0
-1.4252,9.615724,0
-1.4132,-0.942697,0
-1.4122,-9.596437,0
-1.4122,-4.814647,0
-1.4102,7.032704,0
-1.4062,8.993244,0
-1.4022,-1.478573,0
-1.3982,-9.905535,0
-1.3946,-5.192072,0
-1.3906,6.603210,0
-1.3866,8.486384,0
-1.3816,-1.931482,0
-1.3786,-10.626392,0
-1.3736,-6.070063,0
-1.3706,5.960255,0
-1.3656,8.439424,0
-1.3616,-1.617030,0
-1.3546,-9.845232,0
-1.3476,-5.004340,0
-1.3426,6.696402,0
-1.3416,8.430270,0
-1.3416,-2.145889,0
-1.3386,-10.377475,0
-1.3346,-5.136461,0
-1.3296,7.170959,0
-1.3256,9.233002,1
-1.3225,-1.333829,0
-1.3185,-9.823565,0
-1.3135,-4.839207,0
-1.3105,7.229430,0
-1.3055,9.070429,0
-1.3025,-1.195940,0
-1.2975,-9.397794,0
-1.2940,-4.411854,0
-1.2900,7.562838,0
-1.2860,9.121765,0
-1.2820,-1.490551,0
-1.2720,-9.636013,0
-1.2710,-4.652877,0
-1.2700,6.931113,0
-1.2660,8.499619,0
-1.2620,-2.060059,0
-1.2580,-10.048685,0
-1.2540,-4.734996,0
-1.2500,7.198286,0
-1.2460,8.638948,0
-1.2420,-2.065612,0
-1.2380,-10.161549,0
-1.2340,-4.830549,0
-1.2300,7.094584,0
-1.2260,8.359975,0
-1.2220,-2.159657,0
-1.2180,-9.799241,0
-1.2140,-4.382944,0
-1.2100,7.314469,0
-1.2060,8.435596,0
-1.1945,-2.439938,0
-1.1940,-10.291945,0
-1.1940,-4.815873,0
-1.1900,7.161662,0
-1.1860,8.418153,0
-1.1820,-2.739663,0
-1.1780,-11.059229,0
-1.1740,-5.722564,0
-1.1700,6.143360,0
-1.1660,7.510816,0
-1.1620,-2.823167,0
-1.1575,-10.045764,0
-1.1535,-3.830572,0
-1.1495,8.156651,0
-1.1455,8.860076,0
-1.1415,-2.255633,0
-1.1375,-9.999585,0
-1.1335,-4.222536,0
-1.1285,7.759509,0
-1.1255,8.491735,0
-1.1155,-2.370974,0
-1.1145,-9.988012,0
-1.1135,-4.215816,0
-1.1095,7.795893,0
-1.1055,9.006464,0
-1.1015,-1.914613,0
-1.0975,-9.818186,0
-1.0940,-4.121603,0
-1.0899,7.695625,0
-1.0859,9.147538,0
-1.0819,-0.520432,0
-1.0779,-6.768464,0
-1.0739,-0.332250,0
-1.0699,11.053856,1
-1.0659,10.587021,0
-1.0619,-1.601215,0
-1.0569,-10.160481,0
-1.0449,-4.825886,0
-1.0449,6.740169,0
-1.0449,7.403896,0
-1.0419,-3.204811,0
-1.0379,-10.381424,0
-1.0339,-4.210856,0
-1.0299,7.619532,0
-1.0259,7.933614,0
-1.0209,-3.033992,0
-1.0179,-10.317905,0
-1.0139,-4.526763,0
-1.0099,6.715205,0
-1.0059,6.919504,0
-1.0019,-3.888704,0
-0.9979,-10.744998,0
-0.9934,-4.222747,0
-0.9894,7.407152,0
-0.9854,7.664355,0
-0.9744,-3.344083,0
-0.9734,-10.360978,0
-0.9734,-4.103128,0
-0.9694,7.399722,0
-0.9654,7.357916,0
-0.9614,-3.521102,0
-0.9574,-10.362089,0
-0.9534,-3.794826,0
-0.9494,7.642487,0
-0.9454,7.382953,0
-0.9414,-3.897239,0
-0.9374,-10.688886,0
-0.9334,-4.317808,0
-0.9294,7.265621,0
-0.9254,7.159627,0
-0.9214,-3.992485,0
-0.9174,-10.612380,0
-0.9074,-3.928593,0
-0.9064,7.671169,0
-0.9054,7.228002,0
-0.9014,-4.294857,0
-0.8974,-10.744775,0
-0.8939,-3.906945,0
-0.8899,7.603702,0
-0.8859,7.221249,0
-0.8819,-4.133558,0
-0.8779,-10.923303,0
-0.8729,-4.078490,0
-0.8699,7.563694,0
-0.8657,7.283290,0
-0.8617,-3.793762,0
-0.8577,-10.272306,0
-0.8537,-3.377324,0
-0.8497,8.276458,0
-0.8457,7.939110,0
-0.8417,-2.842003,0
-0.8377,-8.822107,0
-0.8337,-1.715189,0
-0.8227,9.417814,0
-0.8227,8.759051,0
-0.8217,-2.381523,0
-0.8177,-8.285286,0
-0.8137,-0.771791,0
-0.8097,10.564307,1
-0.8057,9.523348,0
-0.8017,-2.223966,0
-0.7977,-8.657871,0
-0.7932,-1.347598,0
-0.7892,10.201349,0
-0.7852,9.319129,0
-0.7812,-2.286175,0
-0.7772,-8.777307,0
-0.7732,-1.692525,0
-0.7692,9.554558,1
-0.7652,8.532195,0
-0.7612,-2.957275,0
-0.7572,-9.222950,0
-0.7422,-2.015328,0
-0.7402,9.097154,0
-0.7402,7.654023,0
-0.7392,-3.808020,0
-0.7372,-9.788942,0
-0.7331,-2.534029,0
-0.7287,8.560100,0
-0.7257,7.178830,0
-0.7207,-4.408677,0
-0.7177,-10.548567,0
-0.7137,-3.045043,0
-0.7097,8.156797,0
-0.7057,6.798206,0
-0.7012,-4.797156,0
-0.6972,-10.750130,0
-0.6927,-3.124309,0
-0.6897,8.188456,0
-0.6847,6.873573,0
-0.6816,-4.360298,0
-0.6767,-10.234695,0
-0.6617,-2.834473,0
-0.6607,8.165183,0
-0.6607,6.573448,0
-0.6597,-4.900805,0
-0.6567,-10.506024,0
-0.6527,-2.712073,0
-0.6495,8.393588,0
-0.6455,6.635056,0
-0.6415,-4.976440,0
-0.6375,-10.626097,0
-0.6335,-2.897158,0
-0.6295,8.410051,0
-0.6255,6.831937,0
-0.6215,-4.812785,0
-0.6175,-10.533754,0
-0.6135,-2.700763,0
-0.6095,8.371469,0
-0.6055,6.682471,0
-0.6005,-4.798841,0
-0.5879,-10.336723,0
-0.5879,-2.484092,0
-0.5869,8.432925,0
-0.5849,6.450632,0
-0.5809,-5.081227,0
-0.5769,-10.325352,0
-0.5729,-2.309723,0
-0.5689,8.539358,0
-0.5649,6.583626,0
-0.5609,-4.974830,0
-0.5569,-10.234193,0
-0.5529,-2.489222,0
-0.5489,8.563802,0
-0.5449,6.660416,0
-0.5409,-4.737662,0
-0.5369,-9.863464,0
-0.5329,-1.976704,0
-0.5289,8.559414,0
-0.5249,6.338353,0
-0.5207,-5.269138,0
-0.5104,-10.360863,0
-0.5092,-2.191144,0
-0.5092,8.456017,0
-0.5052,6.214420,0
-0.5012,-4.951206,0
-0.4972,-9.636060,0
-0.4938,-1.633182,0
-0.4883,8.853824,0
-0.4853,6.174427,0
-0.4813,-5.896730,0
-0.4773,-11.225600,0
-0.4733,-3.371770,0
-0.4693,7.371268,0
-0.4653,5.612724,0
-0.4613,-5.382930,0
-0.4563,-9.813729,0
-0.4533,-1.346411,0
-0.4473,9.045620,0
-0.4373,6.207220,0
-0.4363,-5.559974,0
-0.4363,-10.262109,0
-0.4333,-1.842177,0
-0.4283,8.894497,0
-0.4253,6.461554,0
-0.4203,-4.955941,0
-0.4173,-9.538795,0
-0.4123,-1.086759,0
-0.4093,9.406401,1
-0.4043,6.395075,0
-0.4013,-5.586920,0
-0.3963,-10.621425,0
-0.3928,-2.288118,0
-0.3888,8.649195,0
-0.3848,6.934733,0
-0.3808,-3.124336,0
-0.3768,-5.958458,0
-0.3728,3.074036,0
-0.3688,12.749548,1
-0.3626,8.472333,0
-0.3536,-4.578082,0
-0.3526,-9.954698,0
-0.3526,-1.880372,0
-0.3486,8.340497,0
-0.3446,5.319847,0
-0.3406,-5.937709,0
-0.3366,-10.208201,0
-0.3331,-1.544450,0
-0.3284,8.623994,0
-0.3250,5.613966,0
-0.3207,-5.830782,0
-0.3163,-9.991911,0
-0.3123,-1.396483,0
-0.3088,8.846542,0
-0.3043,5.799722,0
-0.3013,-5.587328,0
-0.2967,-9.516863,0
-0.2932,-0.866378,0
-0.2878,9.199079,0
-0.2793,5.802386,0
-0.2793,-5.997860,0
-0.2737,-10.212080,0
-0.2727,-1.449162,0
-0.2687,8.633204,0
-0.2647,5.412388,0
-0.2607,-6.024830,0
-0.2567,-9.622582,0
-0.2527,-0.496509,0
-0.2487,9.235439,0
-0.2447,5.384445,0
-0.2407,-6.498887,0
-0.2367,-10.427766,0
-0.2327,-1.404628,0
-0.2283,8.566974,0
-0.2240,4.752071,0
-0.2210,-6.878889,0
-0.2160,-10.530257,0
-0.2130,-1.482109,0
-0.2025,8.433866,0
-0.1975,4.894290,0
-0.1975,-6.578523,0
-0.1965,-10.012769,0
-0.1925,-1.085137,0
-0.1885,8.417095,0
-0.1845,4.796455,0
-0.1805,-6.280409,0
-0.1765,-9.031476,0
-0.1725,0.754895,0
-0.1683,10.638762,0
-0.1643,6.443445,0
-0.1603,-5.452708,0
-0.1560,-9.066948,0
-0.1530,0.368224,0
-0.1480,10.339668,0
-0.1450,6.623521,0
-0.1400,-4.643215,0
-0.1360,-7.524150,0
-0.1209,2.080423,0
-0.1209,11.916645,0
-0.1199,7.726920,0
-0.1199,-3.948433,0
-0.1159,-6.967203,0
-0.1119,2.589815,0
-0.1079,12.083622,0
-0.1039,7.780234,0
-0.0999,-3.752393,0
-0.0969,-6.749249,0
-0.0923,2.926483,0
-0.0883,12.404071,0
-0.0843,7.732764,0
-0.0803,-4.178717,0
-0.0763,-7.281981,0
-0.0723,2.187080,0
-0.0683,11.362248,0
-0.0643,6.740061,0
-0.0603,-4.838651,0
-0.0553,-7.528025,0
-0.0433,2.126406,0
-0.0423,11.037001,0
-0.0423,5.787677,0
-0.0403,-6.245336,0
-0.0363,-9.205607,0
-0.0323,0.678364,0
-0.0283,10.193376,0
-0.0243,5.518501,0
-0.0203,-6.219270,0
-0.0163,-9.040757,0
-0.0123,1.012098,0
-0.0080,10.384593,0
-0.0040,5.372830,0
0.0000,-6.617240,0
